=~=~=~=~=~=~=~=~=~=~=~= PuTTY log 2025.10.06 16:38:02 =~=~=~=~=~=~=~=~=~=~=~=
øþþúøýÿþýüøþÿûÿúþþýÿøþþúúýþþùøýþþûúøþþüøýÿþøúýÿÿúýøÿÿýýøþÿøúøþÿüúýþþùøûþÿú331
0
0
452
401
428
0
0
451
400
427
0
0
449
400
428
0
0
448
399
427
0
0
446
398
427
0
0
445
399
428
0
0
444
401
431
0
0
442
402
432
0
0
441
403
432
0
0
441
401
430
0
0
440
399
429
0
0
438
396
427
0
0
437
394
425
0
0
435
392
425
0
0
434
391
425
0
0
432
390
426
0
0
431
389
427
0
0
426
387
429
0
0
425
388
429
0
0
423
386
429
0
0
423
386
429
0
0
422
385
429
0
0
420
385
429
0
0
419
385
429
0
0
418
384
429
0
0
417
384
429
0
0
416
383
428
0
0
415
384
429
0
0
413
383
430
0
0
413
384
431
0
0
410
384
433
0
0
408
383
433
0
0
406
383
434
0
0
405
382
434
0
0
404
382
434
0
0
403
382
435
0
0
401
382
436
0
0
400
381
436
0
0
399
382
438
0
0
398
382
438
0
0
398
382
437
0
0
396
382
438
0
0
395
382
438
0
0
394
382
439
0
0
393
381
439
0
0
391
381
440
0
0
390
381
440
0
0
389
380
441
0
0
389
380
441
0
0
388
380
441
0
0
387
380
442
0
0
386
379
442
0
0
385
379
443
0
0
384
379
443
0
0
384
378
444
0
0
383
378
445
0
0
381
378
445
0
0
381
378
445
0
0
380
377
446
0
0
379
378
446
0
0
378
376
446
0
0
378
377
446
0
0
376
376
448
0
443
375
377
448
0
442
374
376
0
0
0
373
377
449
0
0
373
376
0
0
0
373
376
0
0
437
372
376
0
0
436
371
376
0
0
434
371
376
0
0
433
370
376
0
0
432
370
376
0
0
431
369
376
0
0
430
369
376
0
0
428
369
377
0
0
428
368
376
0
0
426
367
376
0
0
425
366
376
0
0
424
366
376
0
0
424
366
377
0
0
422
365
377
0
0
421
365
377
0
0
420
364
376
0
0
419
364
377
0
0
418
363
377
0
0
417
364
378
0
0
416
363
377
0
0
415
362
377
0
0
415
361
377
0
0
414
361
378
0
0
412
360
378
0
0
411
361
378
0
0
410
360
379
0
0
409
360
379
0
0
409
359
379
0
0
408
359
379
0
0
407
358
379
0
0
406
358
380
0
0
405
357
380
0
0
405
357
380
0
0
404
357
380
0
0
403
356
381
0
0
402
356
381
0
0
402
356
381
0
0
400
355
381
0
0
400
355
382
0
0
399
355
383
0
0
398
356
384
0
0
398
356
384
0
0
397
356
385
0
0
396
357
386
0
0
397
358
386
0
0
396
358
387
0
0
396
358
388
0
0
395
358
387
0
0
394
357
388
0
0
393
357
388
0
0
392
357
389
0
0
391
355
388
0
0
391
354
388
0
0
390
354
388
0
0
389
354
388
0
0
388
353
388
0
0
387
352
388
0
0
385
351
387
0
0
384
351
387
0
0
383
350
387
0
0
382
350
388
0
0
382
350
388
0
0
381
350
389
0
0
380
350
389
0
0
379
350
390
0
0
379
349
390
0
0
378
349
390
0
0
377
349
391
0
0
376
348
391
0
0
376
349
392
0
0
375
348
392
0
0
374
348
393
0
0
373
348
393
0
0
372
348
393
0
0
371
348
394
0
0
371
349
395
0
0
370
349
395
0
0
369
348
395
0
0
368
347
394
0
0
368
348
396
0
0
367
347
396
0
0
367
348
397
0
0
365
348
398
0
0
365
348
399
0
0
364
349
399
0
0
364
349
400
0
0
363
348
400
0
0
362
348
401
0
0
361
349
401
0
0
361
348
402
0
0
360
348
403
0
0
360
348
404
0
0
359
349
404
0
0
358
349
405
0
0
357
349
406
0
0
357
349
406
0
0
356
348
406
0
0
356
348
408
0
0
355
349
408
0
0
355
349
409
0
0
354
349
409
0
0
354
349
410
0
0
354
349
411
0
0
354
350
412
0
0
353
351
413
0
0
354
351
413
0
0
353
351
414
0
0
353
352
415
0
0
352
352
415
0
0
352
353
416
0
0
353
353
417
0
0
352
353
418
0
413
351
353
418
0
0
350
353
419
0
0
349
352
419
0
0
348
352
420
0
0
348
352
421
0
0
348
352
422
0
408
348
353
0
0
407
347
354
0
0
406
346
352
424
0
405
346
353
425
0
404
346
353
425
0
403
346
353
426
0
402
345
354
427
0
400
345
354
428
0
400
345
354
0
0
399
345
355
0
0
398
346
356
0
0
397
345
356
0
0
397
345
356
0
0
396
344
357
0
0
396
344
357
0
0
395
344
357
0
0
394
343
357
0
0
393
344
358
0
0
392
342
357
0
0
392
343
359
0
0
392
343
358
0
0
390
343
359
0
0
390
343
359
0
0
390
342
359
0
0
389
342
360
0
0
388
342
360
0
0
387
342
361
0
0
387
342
361
0
0
387
341
362
0
0
387
341
362
0
0
386
342
363
0
0
385
342
363
0
0
385
341
364
0
0
385
341
364
0
0
384
341
364
0
0
383
341
365
0
0
383
341
365
0
0
382
341
366
0
0
382
340
366
0
0
381
340
367
0
0
381
340
367
0
0
380
340
367
0
0
380
340
368
0
0
379
340
368
0
0
379
340
369
0
0
378
340
369
0
0
378
340
370
0
0
377
339
370
0
0
377
340
371
0
0
376
340
372
0
0
376
339
372
0
0
375
339
372
0
0
375
340
373
0
0
374
340
374
0
0
374
339
374
0
0
373
339
374
0
0
373
339
374
0
0
372
339
375
0
0
371
339
375
0
0
371
339
376
0
0
370
339
375
0
0
370
339
376
0
0
369
339
377
0
0
369
338
377
0
0
369
339
378
0
0
368
339
379
0
0
367
339
379
0
0
367
338
380
0
0
366
338
380
0
0
365
338
381
0
0
365
338
381
0
0
364
338
382
0
0
364
338
382
0
0
363
338
383
0
0
363
338
383
0
0
362
339
384
0
0
361
339
384
0
0
361
339
385
0
0
360
339
385
0
0
360
339
386
0
0
359
339
386
0
0
359
339
387
0
0
358
339
388
0
0
358
340
388
0
0
357
340
389
0
0
356
340
390
0
0
356
341
391
0
0
355
340
391
0
0
355
341
392
0
0
354
341
393
0
0
354
341
393
0
0
353
341
394
0
0
353
342
395
0
0
352
341
395
0
0
352
342
396
0
0
351
342
397
0
0
351
342
398
0
0
351
343
399
0
0
350
343
399
0
0
350
343
400
0
0
350
343
401
0
0
350
344
401
0
0
349
344
402
0
0
349
344
403
0
0
348
344
403
0
0
348
344
404
0
0
348
345
405
0
0
348
345
406
0
0
348
345
406
0
0
347
345
407
0
0
347
345
407
0
0
346
345
408
0
0
346
346
409
0
0
345
346
410
0
0
346
347
412
0
0
345
346
411
0
0
344
347
412
0
0
344
347
413
0
0
343
347
414
0
404
342
347
414
0
0
343
348
415
0
403
343
348
416
0
0
343
348
417
0
401
342
349
0
0
401
341
348
418
0
400
342
349
419
0
399
341
348
419
0
398
341
349
420
0
397
340
350
421
0
396
341
349
422
0
395
340
349
0
0
395
340
350
0
0
394
341
351
0
0
393
340
350
0
0
393
339
351
0
0
392
339
351
0
0
391
339
351
0
0
390
339
351
0
0
390
338
351
0
0
388
338
351
0
0
388
337
351
0
0
387
337
352
0
0
386
337
352
0
0
386
337
352
0
0
385
336
353
0
0
385
337
353
0
0
384
337
353
0
0
384
336
354
0
0
383
337
355
0
0
383
337
355
0
0
383
337
356
0
0
382
336
356
0
0
381
337
357
0
0
381
336
357
0
0
381
336
357
0
0
380
338
359
0
0
380
336
358
0
0
380
338
360
0
0
379
336
359
0
0
378
337
361
0
0
378
336
361
0
0
378
337
362
0
0
377
337
362
0
0
377
336
362
0
0
377
337
363
0
0
376
336
364
0
0
375
337
364
0
0
375
336
364
0
0
375
337
365
0
0
374
336
365
0
0
374
337
366
0
0
374
337
367
0
0
373
337
367
0
0
373
336
368
0
0
372
335
367
0
0
371
337
369
0
0
371
336
369
0
0
370
335
370
0
0
370
335
369
0
0
370
336
370
0
0
369
336
371
0
0
369
336
371
0
0
368
336
372
0
0
368
336
371
0
0
367
336
373
0
0
368
335
372
0
0
367
335
372
0
0
366
335
372
0
0
366
335
374
0
0
365
335
374
0
0
365
335
375
0
0
364
335
376
0
0
364
335
376
0
0
363
335
377
0
0
363
335
377
0
0
362
335
378
0
0
361
335
378
0
0
360
334
378
0
0
359
334
378
0
0
358
333
378
0
0
357
333
378
0
0
356
333
378
0
0
355
332
378
0
0
355
333
379
0
0
355
333
379
0
0
354
334
380
0
0
354
334
381
0
0
353
334
381
0
0
353
334
382
0
0
352
335
383
0
0
352
335
384
0
0
351
335
384
0
0
351
336
385
0
0
350
335
386
0
0
350
336
386
0
0
349
336
387
0
0
349
336
388
0
0
349
336
389
0
0
348
337
390
0
0
348
337
390
0
0
347
337
391
0
0
347
337
392
0
0
346
337
392
0
0
346
338
393
0
0
345
338
394
0
0
345
338
394
0
0
345
338
395
0
0
344
338
395
0
0
344
338
396
0
0
344
338
397
0
0
343
339
397
0
0
343
339
399
0
0
344
340
400
0
0
343
340
400
0
0
344
341
401
0
0
343
341
402
0
0
343
342
403
0
0
343
342
403
0
405
342
342
405
0
405
342
342
405
0
0
341
342
406
0
404
340
343
407
0
402
340
342
408
0
401
340
342
408
0
400
338
342
408
0
399
338
343
409
0
398
339
343
410
0
397
338
343
410
0
396
337
342
410
0
395
337
342
410
0
394
336
343
0
0
393
336
343
0
0
392
336
343
413
0
391
336
343
0
0
391
336
344
0
0
391
336
344
415
0
389
335
345
0
0
388
336
345
0
0
388
335
345
0
0
388
334
345
0
0
388
335
345
0
0
386
335
346
0
0
386
334
346
0
0
386
335
347
0
0
385
335
347
0
0
384
335
348
0
0
384
334
348
0
0
383
334
348
0
0
382
335
349
0
0
381
334
350
0
0
381
335
351
0
0
381
334
350
0
0
381
334
351
0
0
381
335
352
0
0
380
335
352
0
0
379
335
352
0
0
378
334
353
0
0
379
334
354
0
0
379
334
354
0
0
379
334
354
0
0
377
334
355
0
0
377
334
355
0
0
378
334
356
0
0
377
334
356
0
0
376
333
357
0
0
376
334
358
0
0
375
334
358
0
0
375
333
358
0
0
375
333
359
0
0
375
333
359
0
0
374
334
360
0
0
373
333
360
0
0
373
333
361
0
0
372
334
362
0
0
372
333
362
0
0
371
333
362
0
0
371
333
363
0
0
371
334
364
0
0
370
333
363
0
0
370
333
364
0
0
369
333
365
0
0
369
334
366
0
0
369
334
367
0
0
369
334
367
0
0
368
334
368
0
0
368
333
368
0
0
367
334
369
0
0
367
334
369
0
0
366
334
369
0
0
366
334
370
0
0
365
334
370
0
0
365
334
371
0
0
365
334
371
0
0
364
334
371
0
0
363
334
371
0
0
363
334
372
0
0
363
334
373
0
0
362
334
374
0
0
362
334
374
0
0
361
334
375
0
0
361
334
376
0
0
361
335
377
0
0
360
335
377
0
0
360
335
378
0
0
359
335
378
0
0
359
335
379
0
0
359
335
379
0
0
358
336
379
0
0
358
335
380
0
0
357
335
381
0
0
356
336
381
0
0
355
335
381
0
0
356
336
382
0
0
355
336
382
0
0
354
336
383
0
0
354
336
384
0
0
353
336
385
0
0
353
336
385
0
0
352
337
386
0
0
351
337
387
0
0
350
337
387
0
0
351
337
388
0
0
348
336
387
0
0
348
336
387
0
0
348
336
389
0
0
347
336
389
0
0
346
337
389
0
0
346
336
390
0
0
346
337
391
0
0
346
337
391
0
0
344
337
392
0
0
345
338
394
0
0
343
338
394
0
0
343
338
395
0
0
343
338
395
0
0
344
338
396
0
0
343
339
396
0
0
343
339
397
0
0
343
339
398
0
0
343
339
399
0
0
342
340
399
0
0
342
339
400
0
0
341
339
400
0
0
341
340
402
0
0
341
340
403
0
0
341
340
403
0
0
340
341
404
0
0
340
341
405
0
0
340
341
406
0
0
340
342
406
0
0
339
342
407
0
0
339
342
408
0
0
339
342
409
0
0
338
343
410
0
0
338
343
411
0
0
338
344
412
0
398
338
344
413
0
397
338
344
413
0
397
338
344
414
0
395
337
344
415
0
395
337
344
415
0
394
337
344
416
0
393
337
345
417
0
392
337
345
418
0
391
336
345
418
0
390
336
346
0
0
390
336
346
0
0
389
336
346
0
0
389
336
346
0
0
389
336
347
0
0
388
336
348
0
0
388
336
348
0
0
387
336
348
0
0
386
335
349
0
0
386
335
349
0
0
385
335
350
0
0
384
335
350
0
0
384
335
350
0
0
383
335
351
0
0
383
335
351
0
0
382
335
351
0
0
382
335
352
0
0
381
335
352
0
0
381
335
353
0
0
381
334
353
0
0
380
335
354
0
0
379
335
354
0
0
380
334
355
0
0
379
335
356
0
0
378
335
356
0
0
378
335
357
0
0
377
335
357
0
0
377
334
357
0
0
375
334
357
0
0
375
333
357
0
0
375
334
358
0
0
374
334
358
0
0
374
334
359
0
0
373
334
359
0
0
373
334
360
0
0
372
333
360
0
0
372
334
361
0
0
373
334
361
0
0
372
333
362
0
0
371
333
362
0
0
371
334
364
0
0
370
333
363
0
0
369
334
364
0
0
369
333
365
0
0
369
333
365
0
0
369
333
366
0
0
368
334
367
0
0
368
334
368
0
0
368
333
368
0
0
367
334
369
0
0
367
334
369
0
0
366
334
369
0
0
366
333
369
0
0
365
334
370
0
0
365
333
371
0
0
364
333
371
0
0
364
334
371
0
0
363
333
372
0
0
364
335
373
0
0
363
334
372
0
0
362
334
374
0
0
362
334
375
0
0
361
334
375
0
0
361
335
376
0
0
360
335
376
0
0
360
334
377
0
0
359
334
377
0
0
359
333
378
0
0
360
335
378
0
0
359
335
379
0
0
358
334
380
0
0
357
335
380
0
0
357
336
381
0
0
356
336
381
0
0
356
336
382
0
0
355
336
382
0
0
355
335
382
0
0
354
336
383
0
0
354
335
384
0
0
354
336
384
0
0
353
336
385
0
0
352
336
386
0
0
352
336
386
0
0
351
337
387
0
0
351
337
388
0
0
350
337
389
0
0
350
337
389
0
0
349
337
389
0
0
349
337
390
0
0
348
337
391
0
0
348
338
392
0
0
347
338
392
0
0
347
338
393
0
0
346
338
394
0
0
346
338
394
0
0
345
339
395
0
0
345
339
396
0
0
345
339
397
0
0
345
340
397
0
0
344
340
398
0
0
345
340
399
0
0
344
340
400
0
0
344
341
400
0
0
344
340
401
0
0
344
341
402
0
0
344
342
402
0
0
343
341
403
0
0
342
342
404
0
0
342
342
405
0
0
342
342
406
0
0
342
343
407
0
0
341
343
407
0
0
341
343
408
0
0
340
343
409
0
0
340
344
410
0
0
340
344
412
0
0
341
345
411
0
0
340
345
412
0
0
340
345
413
0
400
339
345
413
0
398
339
344
414
0
398
339
345
415
0
396
338
344
415
0
395
338
344
416
0
394
337
345
416
0
393
337
345
417
0
392
337
345
418
0
392
336
345
418
0
391
336
345
419
0
390
336
345
420
0
389
335
346
421
0
389
335
346
421
0
388
335
346
423
0
388
335
347
0
0
387
335
347
0
0
387
335
347
0
0
386
335
348
0
0
385
334
348
0
0
385
334
348
0
0
384
334
349
0
0
383
334
349
0
0
383
334
350
0
0
383
334
350
0
0
383
334
351
0
0
382
334
351
0
0
382
334
352
0
0
381
334
352
0
0
381
334
352
0
0
380
334
353
0
0
380
334
353
0
0
379
334
354
0
0
379
334
354
0
0
379
333
355
0
0
377
333
356
0
0
377
333
356
0
0
377
334
357
0
0
376
334
357
0
0
377
334
358
0
0
376
335
359
0
0
376
334
359
0
0
375
335
360
0
0
374
334
360
0
0
374
334
361
0
0
373
335
362
0
0
373
335
362
0
0
373
334
362
0
0
373
335
363
0
0
372
334
363
0
0
372
335
364
0
0
371
335
365
0
0
371
335
366
0
0
371
335
365
0
0
371
336
367
0
0
370
335
367
0
0
370
336
368
0
0
370
335
368
0
0
369
335
368
0
0
368
335
368
0
0
368
335
369
0
0
367
336
369
0
0
367
335
370
0
0
367
336
371
0
0
367
336
371
0
0
367
336
372
0
0
367
336
372
0
0
365
335
373
0
0
365
336
373
0
0
365
335
373
0
0
364
335
373
0
0
363
334
374
0
0
363
333
374
0
0
362
333
375
0
0
362
333
377
0
0
361
333
377
0
0
359
332
377
0
0
360
333
378
0
0
359
333
378
0
0
359
334
379
0
0
359
334
379
0
0
358
334
380
0
0
357
334
380
0
0
357
335
381
0
0
356
335
381
0
0
356
335
381
0
0
356
335
383
0
0
354
335
384
0
0
354
335
384
0
0
353
336
385
0
0
353
336
386
0
0
353
336
386
0
0
352
337
387
0
0
352
337
388
0
0
351
337
389
0
0
350
337
389
0
0
350
337
390
0
0
348
337
390
0
0
348
338
391
0
0
349
338
391
0
0
348
339
392
0
0
348
338
392
0
0
347
338
393
0
0
347
339
393
0
0
346
339
395
0
0
344
339
395
0
0
345
339
396
0
0
345
340
397
0
0
344
340
397
0
0
344
340
398
0
0
345
341
398
0
0
345
340
399
0
0
344
341
400
0
0
345
341
401
0
0
345
341
401
0
409
343
342
402
0
0
343
342
403
0
407
344
342
404
0
406
343
342
405
0
405
341
342
405
0
404
341
342
406
0
403
341
343
407
0
402
340
342
407
0
401
339
342
408
0
0
339
342
408
0
400
338
343
409
0
399
338
343
410
0
398
339
344
411
0
397
337
343
412
0
397
337
343
412
0
395
336
344
412
0
395
338
344
413
0
394
336
344
0
0
393
336
344
415
0
392
336
345
0
0
391
336
344
0
0
390
336
345
416
0
390
337
345
0
0
389
337
346
0
0
389
337
346
0
0
388
336
347
0
0
388
336
347
421
0
387
336
347
0
0
387
335
348
0
0
386
336
348
0
0
386
335
348
0
0
385
334
349
0
0
384
336
349
0
0
384
336
350
0
0
383
334
350
0
0
382
335
351
0
0
382
335
351
0
0
382
335
352
0
0
381
335
352
0
0
381
335
353
0
0
380
335
353
0
0
380
335
353
0
0
379
334
353
0
0
379
334
354
0
0
378
336
355
0
0
379
335
356
0
0
378
334
356
0
0
378
334
356
0
0
377
334
356
0
0
377
335
357
0
0
377
334
357
0
0
376
335
358
0
0
376
334
358
0
0
376
334
359
0
0
375
334
359
0
0
375
334
360
0
0
375
334
360
0
0
374
334
361
0
0
374
334
361
0
0
373
334
362
0
0
373
334
362
0
0
373
334
363
0
0
372
334
364
0
0
372
334
364
0
0
372
334
365
0
0
371
334
365
0
0
371
334
366
0
0
370
334
366
0
0
370
334
367
0
0
369
334
367
0
0
369
334
368
0
0
368
334
368
0
0
368
334
369
0
0
368
334
369
0
0
367
334
370
0
0
367
334
370
0
0
366
334
370
0
0
366
334
370
0
0
365
334
371
0
0
365
334
372
0
0
364
334
372
0
0
364
334
373
0
0
363
334
373
0
0
364
334
374
0
0
363
334
375
0
0
362
334
376
0
0
362
334
376
0
0
361
334
377
0
0
361
334
378
0
0
360
334
378
0
0
360
334
379
0
0
359
335
379
0
0
359
335
380
0
0
359
335
380
0
0
358
336
381
0
0
357
336
381
0
0
358
336
382
0
0
357
336
382
0
0
356
336
383
0
0
356
337
384
0
0
355
337
385
0
0
355
337
385
0
0
354
337
386
0
0
354
337
386
0
0
353
338
387
0
0
353
337
388
0
0
352
338
389
0
0
352
338
390
0
0
351
339
390
0
0
351
339
391
0
0
351
338
392
0
0
350
339
393
0
0
349
339
393
0
0
349
339
394
0
0
349
340
394
0
0
348
340
395
0
0
347
340
396
0
0
348
340
397
0
0
347
341
398
0
0
346
341
398
0
0
346
341
399
0
0
346
342
400
0
0
346
341
400
0
0
346
342
401
0
0
346
342
402
0
0
345
342
402
0
0
345
342
403
0
0
345
342
404
0
0
344
343
404
0
0
344
343
405
0
0
343
343
406
0
0
343
343
407
0
0
343
344
408
0
0
342
344
408
0
0
342
345
409
0
0
342
344
410
0
0
341
345
411
0
0
341
345
412
0
0
341
346
413
0
0
341
346
414
0
0
341
347
415
0
0
341
346
416
0
399
340
347
416
0
398
340
347
417
0
397
340
347
418
0
396
340
347
419
0
396
339
348
419
0
395
339
348
420
0
394
338
348
0
0
393
339
348
0
0
393
339
349
0
0
392
338
349
0
0
391
339
350
0
0
391
338
350
0
0
390
338
350
0
0
390
338
350
0
0
389
338
351
0
0
389
338
351
0
0
388
338
352
0
0
387
337
352
0
0
386
338
352
0
0
386
338
353
0
0
386
337
353
0
0
385
338
354
0
0
385
337
354
0
0
384
337
355
0
0
384
337
355
0
0
383
337
356
0
0
383
337
356
0
0
382
337
357
0
0
382
337
357
0
0
382
336
357
0
0
381
336
358
0
0
380
337
358
0
0
380
336
359
0
0
380
336
359
0
0
379
337
360
0
0
379
336
360
0
0
378
337
361
0
0
378
336
361
0
0
377
336
362
0
0
377
336
362
0
0
376
336
363
0
0
376
336
363
0
0
376
336
364
0
0
375
336
364
0
0
375
336
365
0
0
375
336
365
0
0
374
336
365
0
0
373
335
366
0
0
373
335
366
0
0
372
336
367
0
0
372
336
368
0
0
372
335
368
0
0
371
336
369
0
0
371
336
369
0
0
370
336
370
0
0
370
335
370
0
0
369
335
370
0
0
368
335
371
0
0
368
335
371
0
0
368
335
371
0
0
367
335
372
0
0
367
335
373
0
0
367
335
373
0
0
366
335
373
0
0
365
335
373
0
0
364
334
374
0
0
364
335
374
0
0
363
335
375
0
0
363
334
376
0
0
362
335
377
0
0
362
335
377
0
0
361
335
378
0
0
361
335
378
0
0
360
335
379
0
0
360
335
379
0
0
359
335
380
0
0
358
335
380
0
0
358
335
381
0
0
357
335
381
0
0
357
336
382
0
0
357
336
382
0
0
356
336
382
0
0
356
336
383
0
0
355
336
384
0
0
355
337
385
0
0
355
337
386
0
0
355
337
387
0
0
353
338
387
0
0
353
338
388
0
0
352
338
388
0
0
352
338
389
0
0
352
338
390
0
0
350
339
390
0
0
350
338
391
0
0
350
339
392
0
0
349
339
392
0
0
349
339
393
0
0
348
339
394
0
0
348
339
394
0
0
347
340
395
0
0
348
340
396
0
0
346
340
397
0
0
346
340
397
0
0
346
341
398
0
0
346
341
398
0
0
345
341
399
0
0
345
341
400
0
0
346
341
401
0
0
345
342
401
0
0
345
342
402
0
0
344
342
403
0
0
344
343
403
0
0
344
342
405
0
0
343
343
405
0
0
343
343
406
0
0
343
343
406
0
0
342
344
408
0
0
342
344
409
0
0
341
344
409
0
0
341
344
410
0
0
341
345
411
0
0
341
345
412
0
0
341
345
412
0
0
340
345
413
0
0
340
345
414
0
0
340
346
415
0
398
339
346
415
0
397
339
346
416
0
396
339
346
416
0
396
338
347
417
0
394
339
346
418
0
394
338
347
0
0
393
338
347
0
0
392
338
347
0
0
392
338
348
0
0
391
338
348
0
0
390
337
349
0
0
390
338
349
0
0
389
337
349
0
0
389
337
350
0
0
388
337
350
0
0
388
337
350
0
0
387
337
351
0
0
386
336
351
0
0
386
337
352
0
0
385
336
352
0
0
384
336
352
0
0
384
336
353
0
0
384
336
353
0
0
383
336
353
0
0
383
336
354
0
0
382
336
355
0
0
382
336
355
0
0
381
336
355
0
0
381
336
356
0
0
381
336
356
0
0
380
336
357
0
0
379
336
357
0
0
379
336
358
0
0
379
336
358
0
0
378
336
359
0
0
378
336
359
0
0
378
336
360
0
0
377
335
360
0
0
377
336
361
0
0
377
335
361
0
0
376
335
362
0
0
376
335
362
0
0
375
335
363
0
0
375
335
363
0
0
374
335
364
0
0
374
335
364
0
0
373
335
365
0
0
373
335
365
0
0
372
335
366
0
0
372
334
366
0
0
372
335
367
0
0
371
335
367
0
0
371
335
368
0
0
371
335
368
0
0
371
335
369
0
0
369
335
369
0
0
369
335
370
0
0
369
335
370
0
0
368
335
370
0
0
368
335
371
0
0
367
335
371
0
0
367
335
371
0
0
366
335
372
0
0
366
335
372
0
0
365
335
373
0
0
365
335
374
0
0
364
335
374
0
0
364
335
375
0
0
363
335
376
0
0
363
335
376
0
0
363
335
377
0
0
362
335
378
0
0
362
335
378
0
0
361
335
379
0
0
360
335
379
0
0
360
336
380
0
0
360
335
380
0
0
359
336
381
0
0
359
336
381
0
0
358
336
382
0
0
357
337
382
0
0
357
337
383
0
0
357
337
384
0
0
356
337
384
0
0
355
337
385
0
0
355
337
385
0
0
354
337
386
0
0
354
337
387
0
0
354
338
387
0
0
353
338
388
0
0
352
338
389
0
0
352
339
389
0
0
352
339
390
0
0
351
339
391
0
0
351
339
392
0
0
350
339
392
0
0
350
339
393
0
0
349
339
393
0
0
348
340
394
0
0
348
339
394
0
0
347
340
395
0
0
347
339
396
0
0
347
340
396
0
0
346
341
397
0
0
346
340
398
0
0
346
342
399
0
0
346
341
399
0
0
345
341
400
0
0
345
342
401
0
0
345
342
401
0
0
345
342
402
0
0
345
342
402
0
0
344
343
404
0
0
344
343
404
0
0
343
343
405
0
0
343
343
406
0
0
343
344
407
0
0
342
344
407
0
0
342
344
408
0
0
341
344
409
0
0
342
344
410
0
0
341
345
411
0
0
341
345
412
0
0
340
345
412
0
0
340
345
413
0
0
340
345
414
0
0
340
346
415
0
0
340
346
416
0
398
340
346
416
0
397
339
346
417
0
396
339
347
417
0
395
339
347
419
0
394
338
347
0
0
394
339
348
0
0
393
338
348
0
0
392
338
348
0
0
392
338
348
0
0
391
338
349
0
0
390
338
349
0
0
390
338
349
0
0
389
338
350
0
0
389
338
350
0
0
388
338
351
0
0
388
337
351
0
0
387
337
352
0
0
387
338
352
0
0
386
337
352
0
0
385
337
353
0
0
385
337
353
0
0
385
337
354
0
0
384
337
354
0
0
383
337
354
0
0
383
337
355
0
0
382
337
355
0
0
382
337
356
0
0
382
337
356
0
0
381
337
357
0
0
381
336
357
0
0
381
337
358
0
0
381
336
359
0
0
380
337
359
0
0
379
337
359
0
0
379
336
360
0
0
379
337
360
0
0
378
336
361
0
0
378
336
361
0
0
378
336
362
0
0
377
336
362
0
0
377
336
362
0
0
376
336
363
0
0
376
336
363
0
0
375
336
364
0
0
375
336
364
0
0
374
336
365
0
0
374
336
365
0
0
374
336
366
0
0
373
336
367
0
0
373
336
367
0
0
373
336
368
0
0
372
336
368
0
0
372
336
368
0
0
372
336
369
0
0
371
336
369
0
0
370
336
369
0
0
370
336
370
0
0
370
336
371
0
0
370
336
371
0
0
369
336
371
0
0
368
335
371
0
0
367
336
371
0
0
367
335
371
0
0
366
334
372
0
0
365
334
371
0
0
364
334
371
0
0
363
333
372
0
0
363
334
373
0
0
363
333
373
0
0
362
333
374
0
0
362
334
375
0
0
361
334
375
0
0
361
334
376
0
0
360
334
377
0
0
360
334
377
0
0
359
334
378
0
0
359
334
378
0
0
358
334
379
0
0
358
335
379
0
0
358
335
380
0
0
357
335
381
0
0
357
335
381
0
0
356
336
382
0
0
356
336
382
0
0
356
336
383
0
0
355
336
383
0
0
355
336
384
0
0
354
336
385
0
0
354
336
385
0
0
353
337
386
0
0
353
337
386
0
0
352
337
387
0
0
352
337
388
0
0
351
338
389
0
0
352
337
389
0
0
351
338
390
0
0
350
338
390
0
0
349
338
391
0
0
349
338
392
0
0
349
339
392
0
0
348
339
393
0
0
348
339
394
0
0
348
339
394
0
0
347
339
395
0
0
346
340
396
0
0
346
340
396
0
0
346
340
397
0
0
346
340
397
0
0
346
341
398
0
0
345
341
399
0
0
345
341
399
0
0
345
341
400
0
0
345
341
401
0
0
344
342
402
0
0
344
342
403
0
0
344
342
403
0
0
344
342
404
0
0
344
343
405
0
0
343
343
405
0
0
343
343
406
0
0
342
344
406
0
0
342
343
407
0
0
341
343
407
0
0
340
343
409
0
0
340
343
409
0
0
340
343
410
0
0
339
344
410
0
0
339
344
411
0
0
339
344
412
0
0
339
345
413
0
0
339
345
414
0
0
339
345
415
0
397
338
345
415
0
396
338
345
415
0
395
338
346
416
0
394
338
346
417
0
393
337
346
418
0
393
337
346
0
0
392
337
346
0
0
391
337
347
0
0
391
337
347
0
0
390
337
347
0
0
390
337
348
0
0
389
337
348
0
0
389
337
348
0
0
389
336
349
0
0
388
337
349
0
0
388
337
350
0
0
387
336
350
0
0
387
336
351
0
0
386
336
351
0
0
385
337
351
0
0
385
336
352
0
0
385
336
352
0
0
384
336
352
0
0
384
336
353
0
0
383
336
353
0
0
383
336
354
0
0
383
336
354
0
0
382
337
354
0
0
382
336
355
0
0
381
336
355
0
0
381
336
356
0
0
380
336
356
0
0
380
335
357
0
0
380
336
357
0
0
379
335
357
0
0
379
336
358
0
0
378
335
358
0
0
378
335
359
0
0
377
335
359
0
0
377
335
359
0
0
377
335
360
0
0
376
335
360
0
0
376
335
361
0
0
375
335
361
0
0
375
335
362
0
0
375
335
362
0
0
374
335
363
0
0
374
335
363
0
0
374
334
364
0
0
373
335
364
0
0
373
335
365
0
0
372
335
365
0
0
372
334
366
0
0
372
335
366
0
0
371
335
367
0
0
371
335
368
0
0
371
335
368
0
0
370
335
368
0
0
370
335
369
0
0
370
335
369
0
0
369
335
369
0
0
369
335
370
0
0
369
335
370
0
0
368
335
370
0
0
367
336
371
0
0
367
335
371
0
0
367
335
371
0
0
366
335
372
0
0
366
335
373
0
0
366
335
373
0
0
365
335
373
0
0
365
335
374
0
0
364
335
375
0
0
365
335
375
0
0
364
335
376
0
0
363
335
376
0
0
362
335
377
0
0
362
335
378
0
0
362
335
378
0
0
361
335
379
0
0
360
335
379
0
0
360
336
380
0
0
360
336
380
0
0
360
336
380
0
0
359
336
381
0
0
358
336
381
0
0
358
336
382
0
0
357
336
382
0
0
357
337
383
0
0
357
337
383
0
0
356
337
384
0
0
356
337
384
0
0
355
337
385
0
0
355
337
386
0
0
354
337
386
0
0
354
338
386
0
0
353
337
387
0
0
353
338
388
0
0
352
338
388
0
0
352
338
389
0
0
351
338
389
0
0
351
338
390
0
0
351
338
391
0
0
350
339
391
0
0
350
339
392
0
0
350
339
392
0
0
349
339
393
0
0
348
339
394
0
0
348
339
394
0
0
347
340
395
0
0
347
340
395
0
0
347
340
396
0
0
346
340
397
0
0
346
340
397
0
0
346
341
398
0
0
346
341
398
0
0
346
341
399
0
0
346
341
400
0
0
345
341
400
0
0
344
342
400
0
0
344
342
401
0
0
344
342
403
0
0
345
342
403
0
0
344
343
403
0
0
343
343
404
0
0
343
343
405
0
0
343
343
406
0
0
343
343
406
0
0
342
343
407
0
0
342
344
408
0
0
342
344
409
0
0
342
344
410
0
0
341
344
410
0
0
341
345
411
0
0
341
345
412
0
0
340
345
412
0
0
340
345
413
0
0
340
346
414
0
0
340
346
415
0
399
339
346
415
0
398
339
346
416
0
397
340
346
417
0
396
339
347
417
0
395
338
347
418
0
395
339
347
419
0
394
338
347
0
0
393
338
348
0
0
393
338
348
0
0
392
338
348
0
0
391
338
348
0
0
391
338
348
0
0
390
337
349
0
0
390
338
350
0
0
389
338
350
0
0
389
337
350
0
0
388
337
350
0
0
388
337
351
0
0
387
337
351
0
0
386
337
352
0
0
386
337
352
0
0
385
337
352
0
0
385
337
352
0
0
384
336
353
0
0
384
337
353
0
0
384
337
354
0
0
384
337
354
0
0
383
337
354
0
0
383
337
355
0
0
383
336
356
0
0
382
337
356
0
0
381
337
356
0
0
381
336
357
0
0
381
336
357
0
0
380
336
357
0
0
381
336
357
0
0
380
336
358
0
0
380
336
358
0
0
379
336
359
0
0
379
336
360
0
0
379
336
360
0
0
379
335
360
0
0
378
336
360
0
0
378
336
361
0
0
378
336
361
0
0
377
336
362
0
0
377
336
363
0
0
376
336
364
0
0
376
336
364
0
0
376
336
365
0
0
375
336
364
0
0
375
335
365
0
0
375
335
365
0
0
374
335
365
0
0
374
335
366
0
0
374
335
366
0
0
373
335
367
0
0
373
335
367
0
0
372
335
368
0
0
371
336
368
0
0
372
336
369
0
0
371
335
369
0
0
370
336
369
0
0
370
335
370
0
0
369
335
370
0
0
368
335
371
0
0
369
336
371
0
0
368
336
372
0
0
368
336
372
0
0
367
335
372
0
0
367
336
373
0
0
367
336
373
0
0
366
336
374
0
0
366
335
374
0
0
365
335
374
0
0
364
334
374
0
0
364
334
375
0
0
364
335
376
0
0
363
334
377
0
0
362
334
377
0
0
362
333
377
0
0
362
334
378
0
0
361
334
379
0
0
361
335
380
0
0
360
335
380
0
0
360
335
380
0
0
360
335
381
0
0
359
336
381
0
0
359
335
381
0
0
358
335
381
0
0
357
335
382
0
0
357
335
383
0
0
356
335
383
0
0
355
334
384
0
0
355
336
385
0
0
354
336
386
0
0
354
336
387
0
0
353
337
387
0
0
353
336
387
0
0
352
336
387
0
0
351
336
387
0
0
351
336
387
0
0
350
335
387
0
0
349
335
388
0
0
349
335
390
0
0
348
335
390
0
0
347
334
390
0
0
347
335
390
0
0
346
335
392
0
0
346
335
393
0
0
345
335
393
0
0
344
335
394
0
0
345
335
395
0
0
344
336
395
0
0
344
336
396
0
0
343
336
397
0
0
343
336
398
0
0
343
337
398
0
0
343
337
399
0
0
343
337
400
0
0
343
338
401
0
0
342
338
402
0
0
342
338
402
0
0
342
338
403
0
0
341
339
403
0
0
341
339
405
0
0
341
340
405
0
0
340
340
406
0
0
340
339
407
0
0
338
339
407
0
0
338
340
408
0
403
338
340
409
0
403
337
340
410
0
402
337
340
410
0
401
337
341
411
0
400
337
341
411
0
399
336
341
412
0
399
336
341
413
0
398
336
341
0
0
397
336
341
0
0
396
335
342
0
0
395
336
342
0
0
395
335
343
0
0
394
336
343
0
0
394
336
344
418
0
394
335
344
419
0
392
334
343
0
0
391
334
344
0
0
390
334
344
0
0
389
334
344
0
0
389
334
344
0
0
389
334
345
0
0
388
334
345
0
0
388
335
346
0
0
387
334
346
0
0
387
334
347
0
0
386
333
347
0
0
386
333
347
0
0
385
333
348
0
0
385
334
349
0
0
384
334
349
0
0
384
334
349
0
0
383
333
350
0
0
383
333
350
0
0
382
334
351
0
0
382
334
351
0
0
382
333
351
0
0
381
333
352
0
0
381
334
353
0
0
381
333
353
0
0
380
333
354
0
0
379
333
354
0
0
379
334
355
0
0
379
333
355
0
0
378
333
355
0
0
378
334
357
0
0
378
334
357
0
0
378
334
358
0
0
377
334
358
0
0
377
334
359
0
0
376
334
359
0
0
376
334
359
0
0
376
334
360
0
0
375
334
360
0
0
375
334
361
0
0
375
334
361
0
0
374
334
362
0
0
374
334
362
0
0
373
334
363
0
0
373
333
364
0
0
373
333
364
0
0
372
334
365
0
0
372
334
365
0
0
372
334
366
0
0
371
334
366
0
0
370
335
367
0
0
370
333
367
0
0
370
334
368
0
0
369
334
368
0
0
369
334
369
0
0
368
334
369
0
0
368
334
370
0
0
368
334
370
0
0
367
335
370
0
0
367
334
370
0
0
366
333
370
0
0
365
333
370
0
0
364
333
370
0
0
364
333
371
0
0
363
332
371
0
0
363
332
372
0
0
362
333
373
0
0
362
333
373
0
0
362
332
374
0
0
361
333
375
0
0
361
333
376
0
0
360
334
376
0
0
360
334
377
0
0
359
333
378
0
0
359
333
378
0
0
359
334
379
0
0
358
334
379
0
0
357
334
379
0
0
357
335
380
0
0
356
334
380
0
0
356
334
381
0
0
355
335
382
0
0
355
335
381
0
0
355
334
382
0
0
354
334
383
0
0
353
336
384
0
0
353
335
384
0
0
353
335
385
0
0
352
336
386
0
0
352
336
387
0
0
351
337
388
0
0
351
337
388
0
0
351
338
389
0
0
350
338
390
0
0
351
339
391
0
0
351
340
391
0
0
350
340
392
0
0
350
340
393
0
0
349
340
394
0
0
349
339
394
0
0
348
340
394
0
0
348
340
395
0
0
346
339
396
0
0
346
340
396
0
0
346
341
397
0
0
345
340
398
0
0
346
341
399
0
0
345
341
399
0
0
345
342
400
0
0
345
342
401
0
0
346
342
401
0
0
345
342
401
0
0
344
343
403
0
0
345
342
403
0
0
344
343
404
0
0
343
343
404
0
0
344
343
405
0
0
343
344
406
0
0
342
343
407
0
0
342
344
408
0
0
341
344
408
0
0
341
344
408
0
0
342
345
409
0
0
341
344
410
0
0
342
345
411
0
400
341
345
412
0
399
340
346
412
0
398
340
345
414
0
398
340
346
0
0
397
340
346
415
0
397
340
347
0
0
396
339
346
416
0
395
338
346
417
0
395
338
347
0
0
394
339
348
0
0
393
339
348
0
0
393
338
348
0
0
392
338
349
0
0
391
339
349
0
0
391
339
349
0
0
390
339
350
0
0
390
339
350
0
0
389
338
351
0
0
389
338
351
0
0
389
338
351
0
0
388
337
351
0
0
387
337
351
0
0
386
337
352
0
0
386
337
352
0
0
385
337
352
0
0
385
337
353
0
0
384
337
353
0
0
384
337
354
0
0
384
337
355
0
0
383
336
355
0
0
383
336
355
0
0
381
336
355
0
0
381
336
355
0
0
380
335
355
0
0
380
335
356
0
0
380
336
356
0
0
379
335
357
0
0
379
335
357
0
0
378
335
358
0
0
378
335
358
0
0
377
336
360
0
0
377
335
359
0
0
377
335
360
0
0
377
335
360
0
0
376
335
361
0
0
376
335
361
0
0
375
335
362
0
0
376
335
362
0
0
375
335
363
0
0
374
335
363
0
0
374
335
364
0
0
374
335
365
0
0
373
335
365
0
0
373
335
365
0
0
372
335
366
0
0
372
335
366
0
0
371
335
367
0
0
371
335
367
0
0
371
336
368
0
0
370
335
369
0
0
370
335
369
0
0
369
335
369
0
0
369
334
370
0
0
368
335
370
0
0
368
335
370
0
0
367
335
371
0
0
367
335
371
0
0
366
335
372
0
0
366
335
372
0
0
366
334
372
0
0
365
335
373
0
0
365
335
374
0
0
364
335
374
0
0
364
335
375
0
0
363
335
375
0
0
363
335
376
0
0
362
334
377
0
0
362
335
377
0
0
361
335
378
0
0
361
335
378
0
0
360
335
379
0
0
360
335
379
0
0
359
335
380
0
0
359
335
380
0
0
358
335
381
0
0
358
336
381
0
0
357
336
382
0
0
357
336
382
0
0
356
336
383
0
0
356
337
383
0
0
355
336
384
0
0
355
337
385
0
0
354
337
386
0
0
354
337
386
0
0
352
337
387
0
0
352
337
387
0
0
352
337
388
0
0
351
337
389
0
0
351
338
389
0
0
350
338
390
0
0
350
338
391
0
0
350
338
391
0
0
349
339
392
0
0
348
339
393
0
0
348
339
393
0
0
348
339
394
0
0
347
339
395
0
0
347
339
396
0
0
347
339
396
0
0
346
340
397
0
0
346
340
397
0
0
346
341
398
0
0
346
341
399
0
0
345
341
400
0
0
345
341
400
0
0
345
341
401
0
0
345
342
402
0
0
345
342
402
0
0
345
342
403
0
0
344
343
403
0
0
344
342
405
0
0
343
343
406
0
0
343
343
406
0
0
342
343
407
0
0
342
344
408
0
0
342
344
409
0
0
342
344
409
0
0
341
344
410
0
0
341
345
411
0
0
340
345
412
0
0
340
345
412
0
0
340
346
413
0
0
340
346
414
0
399
340
346
415
0
398
339
346
415
0
397
339
346
416
0
396
339
347
417
0
395
339
346
417
0
394
338
346
418
0
394
338
347
419
0
393
338
347
0
0
392
338
348
0
0
392
338
348
0
0
391
338
348
0
0
391
338
349
0
0
390
337
350
0
0
390
338
350
0
0
389
338
350
0
0
389
337
350
0
0
388
338
351
0
0
388
337
351
0
0
387
337
352
0
0
386
337
352
0
0
386
337
353
0
0
385
337
353
0
0
385
337
354
0
0
384
337
354
0
0
383
337
355
0
0
383
338
355
0
0
383
337
355
0
0
382
336
355
0
0
382
337
356
0
0
382
337
356
0
0
381
336
356
0
0
381
337
358
0
0
380
336
358
0
0
380
336
358
0
0
379
336
359
0
0
379
336
359
0
0
378
336
360
0
0
378
336
360
0
0
378
336
361
0
0
377
336
361
0
0
377
336
362
0
0
376
335
362
0
0
377
336
362
0
0
376
335
363
0
0
375
336
363
0
0
375
335
364
0
0
374
336
365
0
0
374
335
365
0
0
374
335
365
0
0
373
335
366
0
0
373
335
366
0
0
372
336
367
0
0
372
335
367
0
0
372
335
368
0
0
371
336
368
0
0
371
335
369
0
0
370
335
369
0
0
370
336
370
0
0
369
336
371
0
0
369
336
371
0
0
369
336
371
0
0
368
335
371
0
0
367
336
372
0
0
367
336
373
0
0
367
336
374
0
0
366
336
373
0
0
366
336
374
0
0
365
336
374
0
0
365
336
375
0
0
364
336
375
0
0
364
336
376
0
0
364
336
377
0
0
363
336
377
0
0
363
336
379
0
0
362
336
379
0
0
362
336
379
0
0
361
336
379
0
0
361
336
380
0
0
361
336
380
0
0
360
336
381
0
0
359
336
381
0
0
359
336
382
0
0
358
337
383
0
0
358
337
383
0
0
357
337
384
0
0
357
338
384
0
0
356
337
384
0
0
356
338
384
0
0
355
337
385
0
0
355
337
386
0
0
354
338
386
0
0
354
338
387
0
0
353
338
388
0
0
352
338
388
0
0
353
338
389
0
0
352
339
389
0
0
351
339
391
0
0
351
339
391
0
0
350
339
391
0
0
350
339
392
0
0
349
339
393
0
0
349
340
393
0
0
348
340
394
0
0
348
340
395
0
0
348
340
395
0
0
347
340
395
0
0
346
340
396
0
0
346
340
398
0
0
346
341
398
0
0
346
341
398
0
0
346
341
399
0
0
345
342
400
0
0
346
342
401
0
0
346
342
401
0
0
345
342
401
0
0
345
342
402
0
0
345
342
403
0
0
344
342
404
0
0
344
343
405
0
0
344
343
406
0
0
343
344
406
0
0
342
343
407
0
0
342
344
407
0
0
342
344
409
0
0
342
344
410
0
0
342
344
410
0
0
341
345
411
0
0
341
345
412
0
0
341
346
413
0
0
341
345
414
0
0
341
346
415
0
400
340
346
415
0
399
340
346
416
0
398
340
347
0
0
397
339
348
0
0
397
339
347
418
0
396
339
347
0
0
395
339
347
0
0
395
339
348
0
0
394
339
349
0
0
393
339
349
0
0
393
339
349
0
0
393
339
349
0
0
392
338
349
0
0
392
339
350
0
0
391
338
350
0
0
390
338
351
0
0
390
338
351
0
0
390
338
352
0
0
388
339
353
0
0
388
339
353
0
0
387
337
352
0
0
387
337
354
0
0
386
337
354
0
0
386
339
355
0
0
385
337
354
0
0
385
337
354
0
0
385
338
355
0
0
384
337
355
0
0
383
337
356
0
0
383
337
356
0
0
383
337
356
0
0
382
337
358
0
0
382
337
357
0
0
381
337
358
0
0
380
337
359
0
0
380
338
360
0
0
380
337
359
0
0
379
336
359
0
0
379
336
361
0
0
378
337
362
0
0
378
337
362
0
0
377
337
362
0
0
377
337
363
0
0
377
336
363
0
0
376
336
363
0
0
376
336
363
0
0
376
336
364
0
0
376
335
365
0
0
375
336
365
0
0
375
336
366
0
0
374
336
366
0
0
374
336
366
0
0
373
336
367
0
0
373
336
367
0
0
372
336
367
0
0
372
336
368
0
0
372
336
369
0
0
371
336
369
0
0
371
336
370
0
0
370
336
370
0
0
370
336
371
0
0
370
336
371
0
0
369
336
372
0
0
369
336
372
0
0
368
335
372
0
0
368
335
372
0
0
367
336
373
0
0
367
336
373
0
0
366
336
374
0
0
366
336
374
0
0
365
335
375
0
0
366
336
375
0
0
365
336
376
0
0
364
336
377
0
0
363
335
377
0
0
362
335
377
0
0
362
335
377
0
0
360
335
377
0
0
360
335
378
0
0
360
334
378
0
0
359
335
379
0
0
358
334
379
0
0
358
335
380
0
0
358
335
380
0
0
357
335
381
0
0
357
336
381
0
0
357
336
382
0
0
356
336
382
0
0
356
337
383
0
0
355
336
384
0
0
355
337
384
0
0
354
337
385
0
0
354
337
386
0
0
354
338
387
0
0
353
337
387
0
0
352
338
387
0
0
352
337
388
0
0
351
337
388
0
0
350
336
388
0
0
349
336
389
0
0
348
336
390
0
0
347
336
390
0
0
347
336
391
0
0
346
336
391
0
0
346
336
392
0
0
345
336
392
0
0
346
337
393
0
0
345
337
393
0
0
345
337
395
0
0
344
337
395
0
0
345
337
395
0
0
344
338
396
0
0
344
338
396
0
0
343
337
398
0
0
343
338
398
0
0
343
338
398
0
0
343
338
399
0
0
342
338
400
0
0
341
338
401
0
0
341
337
401
0
0
341
338
402
0
0
341
338
403
0
0
341
339
404
0
0
340
339
405
0
0
341
339
406
0
408
339
339
406
0
407
339
339
407
0
0
339
340
408
0
0
338
340
408
0
0
338
340
409
0
0
338
340
410
0
403
338
340
410
0
401
336
340
410
0
400
335
339
410
0
399
335
339
411
0
398
334
339
411
0
396
334
339
411
0
395
333
339
411
0
394
332
338
0
0
394
332
339
0
0
393
333
340
0
0
392
332
340
0
0
392
332
340
0
0
391
332
340
0
0
391
333
341
0
0
390
332
341
0
0
389
332
341
0
0
389
333
343
0
0
389
334
345
0
0
387
336
346
0
0
387
336
347
420
0
386
336
348
0
0
386
336
348
0
0
385
334
348
0
0
386
335
348
0
0
385
334
348
0
0
385
334
348
0
0
384
335
349
0
0
384
334
349
0
0
383
335
350
0
0
383
334
350
0
0
382
334
350
0
0
381
334
351
0
0
381
334
351
0
0
381
334
352
0
0
380
334
352
0
0
380
335
353
0
0
379
334
353
0
0
380
334
353
0
0
379
333
353
0
0
379
333
353
0
0
378
332
352
0
0
377
332
352
0
0
376
330
352
0
0
376
330
352
0
0
376
330
353
0
0
374
330
353
0
0
374
329
353
0
0
374
331
354
0
0
373
331
355
0
0
374
330
355
0
0
374
330
356
0
0
373
331
357
0
0
373
331
357
0
0
372
331
357
0
0
373
330
358
0
0
372
331
358
0
0
372
331
358
0
0
371
330
359
0
0
372
330
360
0
0
371
330
360
0
0
371
330
360
0
0
370
330
361
0
0
370
331
362
0
0
370
331
363
0
0
369
332
363
0
0
369
331
363
0
0
369
331
363
0
0
368
332
365
0
0
369
332
365
0
0
367
332
365
0
0
368
332
366
0
0
367
332
367
0
0
367
332
367
0
0
366
332
367
0
0
366
333
368
0
0
366
334
369
0
0
366
334
369
0
0
365
334
370
0
0
365
333
369
0
0
365
333
370
0
0
365
333
370
0
0
365
333
370
0
0
364
333
371
0
0
364
333
371
0
0
364
333
372
0
0
364
334
373
0
0
363
334
373
0
0
363
334
373
0
0
362
333
374
0
0
362
334
375
0
0
362
333
375
0
0
361
334
376
0
0
361
335
377
0
0
360
334
376
0
0
360
334
377
0
0
359
334
378
0
0
360
334
378
0
0
359
334
378
0
0
358
334
379
0
0
358
334
379
0
0
358
335
380
0
0
357
335
380
0
0
357
335
381
0
0
357
335
381
0
0
357
335
381
0
0
356
334
381
0
0
354
334
381
0
0
354
334
381
0
0
353
334
381
0
0
352
334
381
0
0
352
334
382
0
0
352
334
383
0
0
351
335
383
0
0
351
335
384
0
0
351
335
385
0
0
350
335
385
0
0
349
335
386
0
0
350
335
386
0
0
349
336
387
0
0
349
336
387
0
0
348
336
388
0
0
348
336
388
0
0
347
336
389
0
0
346
335
389
0
0
346
336
389
0
0
346
336
390
0
0
345
336
390
0
0
345
336
391
0
0
345
336
391
0
0
344
337
392
0
0
344
337
393
0
0
344
337
393
0
0
344
337
394
0
0
343
338
394
0
0
343
337
395
0
0
343
338
395
0
0
343
338
396
0
0
343
338
397
0
0
343
338
397
0
0
342
339
397
0
0
342
339
399
0
0
342
339
399
0
0
342
339
400
0
0
342
339
400
0
0
342
339
401
0
0
341
340
401
0
0
341
340
402
0
0
341
340
402
0
0
341
340
404
0
0
340
340
404
0
0
340
341
404
0
0
340
341
405
0
0
339
341
406
0
0
340
342
407
0
0
339
342
407
0
0
339
342
408
0
0
339
342
408
0
0
339
342
409
0
0
338
342
410
0
0
338
343
410
0
0
338
343
411
0
0
338
343
412
0
0
338
343
412
0
0
338
344
413
0
396
337
344
414
0
396
337
344
414
0
395
337
344
415
0
394
337
344
415
0
393
337
344
416
0
393
336
345
416
0
392
336
345
417
0
391
336
345
417
0
391
336
345
0
0
391
336
345
0
0
390
336
346
0
0
390
336
346
0
0
389
336
346
0
0
389
336
346
0
0
389
336
347
0
0
388
336
347
0
0
388
335
347
0
0
388
336
348
0
0
387
336
348
0
0
387
335
348
0
0
386
335
349
0
0
386
335
349
0
0
386
335
349
0
0
385
335
350
0
0
385
335
350
0
0
384
335
350
0
0
384
335
351
0
0
383
335
351
0
0
383
335
351
0
0
383
335
352
0
0
382
335
352
0
0
382
335
352
0
0
381
335
353
0
0
381
335
353
0
0
381
335
353
0
0
381
335
354
0
0
380
335
354
0
0
380
335
354
0
0
380
335
355
0
0
379
335
355
0
0
379
335
355
0
0
379
335
356
0
0
379
335
356
0
0
379
335
357
0
0
378
335
357
0
0
378
335
357
0
0
378
335
358
0
0
378
335
358
0
0
378
335
359
0
0
377
335
359
0
0
377
335
360
0
0
377
335
360
0
0
377
335
360
0
0
376
335
360
0
0
376
335
361
0
0
376
335
361
0
0
376
335
362
0
0
375
335
362
0
0
375
335
363
0
0
375
335
363
0
0
374
335
363
0
0
374
334
364
0
0
374
335
364
0
0
373
335
364
0
0
373
335
365
0
0
373
335
365
0
0
373
335
365
0
0
372
335
366
0
0
372
335
366
0
0
372
335
367
0
0
371
335
367
0
0
371
335
367
0
0
371
335
368
0
0
371
335
368
0
0
370
335
369
0
0
370
335
369
0
0
370
335
369
0
0
369
335
370
0
0
369
335
370
0
0
369
335
370
0
0
369
335
370
0
0
368
335
371
0
0
368
335
371
0
0
368
335
371
0
0
368
335
371
0
0
367
335
372
0
0
367
335
372
0
0
366
335
372
0
0
366
335
372
0
0
365
335
373
0
0
365
335
374
0
0
365
335
374
0
0
365
335
374
0
0
365
336
375
0
0
364
335
375
0
0
364
335
376
0
0
364
335
376
0
0
363
335
376
0
0
363
335
377
0
0
363
336
377
0
0
362
335
378
0
0
362
335
378
0
0
362
335
378
0
0
361
335
379
0
0
361
336
379
0
0
360
335
379
0
0
360
335
380
0
0
360
335
380
0
0
359
335
380
0
0
359
336
381
0
0
359
336
381
0
0
359
336
382
0
0
358
336
382
0
0
358
336
382
0
0
357
337
383
0
0
357
337
383
0
0
357
337
383
0
0
356
337
383
0
0
356
337
384
0
0
356
337
384
0
0
355
337
384
0
0
355
337
385
0
0
355
337
385
0
0
354
337
386
0
0
354
337
386
0
0
354
338
387
0
0
354
337
387
0
0
353
338
388
0
0
353
338
388
0
0
352
338
389
0
0
352
338
389
0
0
352
338
389
0
0
351
338
390
0
0
351
338
390
0
0
351
339
391
0
0
351
338
391
0
0
350
339
392
0
0
350
339
392
0
0
349
339
393
0
0
349
339
393
0
0
349
339
393
0
0
349
339
394
0
0
348
339
394
0
0
348
340
394
0
0
348
340
395
0
0
347
340
395
0
0
347
340
396
0
0
347
340
396
0
0
347
340
397
0
0
346
341
397
0
0
346
340
398
0
0
346
341
398
0
0
346
340
398
0
0
345
341
399
0
0
346
341
399
0
0
346
341
400
0
0
345
341
400
0
0
345
341
400
0
0
345
342
401
0
0
345
342
402
0
0
345
342
402
0
0
345
342
403
0
0
344
342
403
0
0
344
343
403
0
0
344
342
404
0
0
344
342
405
0
0
343
343
405
0
0
343
343
405
0
0
343
344
406
0
0
342
343
406
0
0
342
343
407
0
0
342
344
407
0
0
342
344
408
0
0
342
344
409
0
0
341
344
409
0
0
341
344
410
0
0
341
344
410
0
0
341
344
411
0
0
341
345
411
0
0
341
344
412
0
0
340
345
412
0
0
340
345
413
0
0
340
345
413
0
0
340
346
414
0
0
340
346
414
0
0
340
346
415
0
398
340
346
415
0
398
339
346
416
0
397
339
346
416
0
396
338
346
417
0
396
338
346
417
0
395
338
346
417
0
394
338
346
418
0
394
338
347
418
0
393
338
347
0
0
393
338
347
0
0
393
338
347
0
0
392
338
347
0
0
392
338
348
0
0
392
339
348
0
0
392
338
349
0
0
391
338
349
0
0
391
338
349
0
0
390
338
349
0
0
390
337
349
0
0
390
337
350
0
0
389
337
350
0
0
389
337
350
0
0
389
337
350
0
0
388
337
351
0
0
388
337
351
0
0
387
337
351
0
0
387
337
352
0
0
386
337
352
0
0
386
337
352
0
0
385
337
352
0
0
385
337
353
0
0
385
337
353
0
0
385
337
353
0
0
384
337
354
0
0
384
337
354
0
0
384
337
354
0
0
383
337
354
0
0
383
336
354
0
0
383
337
356
0
0
382
337
355
0
0
382
336
356
0
0
382
337
356
0
0
382
336
356
0
0
381
337
356
0
0
381
336
357
0
0
381
337
357
0
0
381
336
357
0
0
380
336
358
0
0
380
336
358
0
0
380
336
358
0
0
379
336
359
0
0
379
336
359
0
0
379
336
359
0
0
379
336
359
0
0
378
336
360
0
0
378
336
360
0
0
378
336
360
0
0
378
336
361
0
0
377
336
361
0
0
377
336
362
0
0
377
336
362
0
0
376
336
362
0
0
377
336
363
0
0
376
336
363
0
0
376
336
364
0
0
376
336
364
0
0
375
336
364
0
0
375
336
365
0
0
376
336
365
0
0
375
336
365
0
0
375
336
365
0
0
374
336
366
0
0
374
336
366
0
0
374
336
367
0
0
373
336
367
0
0
373
336
367
0
0
373
336
368
0
0
373
336
368
0
0
372
336
368
0
0
372
336
369
0
0
372
336
369
0
0
372
336
369
0
0
371
336
370
0
0
371
336
370
0
0
371
336
371
0
0
371
336
371
0
0
370
336
371
0
0
370
336
371
0
0
369
336
371
0
0
369
336
371
0
0
369
336
372
0
0
368
336
372
0
0
368
336
372
0
0
368
336
372
0
0
368
336
373
0
0
367
336
373
0
0
367
336
373
0
0
367
336
373
0
0
366
336
373
0
0
366
336
374
0
0
366
335
374
0
0
365
336
375
0
0
365
335
375
0
0
365
336
375
0
0
364
336
376
0
0
364
336
376
0
0
364
336
377
0
0
363
336
377
0
0
364
336
378
0
0
363
336
378
0
0
363
336
379
0
0
362
336
379
0
0
362
336
379
0
0
362
336
380
0
0
362
336
380
0
0
361
336
380
0
0
361
336
381
0
0
360
336
381
0
0
360
336
381
0
0
359
336
381
0
0
359
336
382
0
0
359
336
382
0
0
358
336
382
0
0
358
337
383
0
0
358
337
383
0
0
358
337
383
0
0
358
337
384
0
0
357
337
384
0
0
357
338
384
0
0
356
338
385
0
0
356
338
385
0
0
356
337
386
0
0
356
338
386
0
0
355
338
386
0
0
355
339
387
0
0
354
338
387
0
0
354
338
388
0
0
354
338
387
0
0
353
338
388
0
0
353
339
388
0
0
353
338
389
0
0
353
339
389
0
0
352
339
390
0
0
352
339
390
0
0
352
339
390
0
0
351
339
391
0
0
351
339
392
0
0
351
339
392
0
0
351
339
393
0
0
350
339
392
0
0
350
340
393
0
0
350
340
394
0
0
350
340
394
0
0
349
340
394
0
0
349
340
394
0
0
348
340
395
0
0
349
340
395
0
0
348
340
395
0
0
347
341
396
0
0
347
341
396
0
0
347
341
397
0
0
347
341
397
0
0
347
341
398
0
0
347
341
398
0
0
346
341
398
0
0
347
341
399
0
0
347
341
399
0
0
346
341
400
0
0
346
342
400
0
0
346
342
400
0
0
346
342
401
0
0
346
342
401
0
0
346
342
402
0
0
345
342
402
0
0
345
342
403
0
0
345
342
403
0
0
344
343
403
0
0
344
342
404
0
0
344
343
404
0
0
344
342
404
0
0
343
342
404
0
0
342
342
404
0
0
342
342
405
0
0
342
342
405
0
0
341
342
406
0
0
341
342
406
0
0
341
342
407
0
0
341
343
407
0
0
341
343
408
0
0
340
343
408
0
0
340
343
408
0
0
340
344
409
0
0
340
343
410
0
0
340
343
410
0
0
339
344
411
0
0
339
344
411
0
0
339
344
411
0
0
339
344
412
0
0
340
344
412
0
0
339
345
413
0
0
339
345
414
0
0
339
345
414
0
397
338
345
415
0
396
339
345
415
0
396
338
345
415
0
395
338
346
416
0
395
338
345
416
0
394
338
345
416
0
394
337
345
417
0
393
337
346
417
0
393
337
345
418
0
392
337
346
0
0
392
337
346
0
0
391
337
346
0
0
391
337
346
0
0
391
337
347
0
0
391
337
347
0
0
390
337
347
0
0
390
337
347
0
0
390
337
348
0
0
389
337
348
0
0
389
337
348
0
0
389
336
348
0
0
388
336
349
0
0
388
336
349
0
0
388
337
349
0
0
387
336
350
0
0
387
336
350
0
0
386
336
350
0
0
386
336
350
0
0
385
335
350
0
0
384
335
350
0
0
384
335
350
0
0
383
334
350
0
0
382
334
350
0
0
382
334
350
0
0
382
334
350
0
0
381
334
350
0
0
381
334
351
0
0
381
333
351
0
0
381
334
351
0
0
380
334
352
0
0
380
334
352
0
0
380
334
352
0
0
380
334
353
0
0
379
334
353
0
0
379
334
353
0
0
379
333
353
0
0
379
334
354
0
0
378
334
354
0
0
378
334
354
0
0
378
334
355
0
0
378
334
355
0
0
378
334
356
0
0
378
334
356
0
0
377
334
356
0
0
377
334
356
0
0
376
334
356
0
0
377
334
357
0
0
376
334
358
0
0
376
334
358
0
0
376
333
358
0
0
376
333
358
0
0
375
333
359
0
0
375
334
359
0
0
375
334
359
0
0
375
334
360
0
0
375
334
360
0
0
375
334
361
0
0
374
334
361
0
0
374
334
361
0
0
374
334
362
0
0
374
334
362
0
0
374
334
363
0
0
373
334
363
0
0
373
334
363
0
0
373
334
364
0
0
373
334
364
0
0
372
334
364
0
0
372
334
364
0
0
372
334
365
0
0
371
334
365
0
0
371
334
365
0
0
371
334
366
0
0
371
334
366
0
0
371
334
366
0
0
370
334
366
0
0
370
334
367
0
0
370
334
367
0
0
369
334
368
0
0
369
335
368
0
0
369
334
368
0
0
369
334
369
0
0
368
334
369
0
0
368
334
369
0
0
368
334
369
0
0
367
334
369
0
0
367
334
370
0
0
367
334
370
0
0
367
335
370
0
0
366
334
371
0
0
366
335
371
0
0
366
334
371
0
0
366
334
371
0
0
366
335
372
0
0
365
335
372
0
0
365
334
372
0
0
365
335
373
0
0
364
334
373
0
0
364
334
373
0
0
364
335
374
0
0
364
334
375
0
0
363
334
375
0
0
363
335
375
0
0
363
335
376
0
0
363
335
376
0
0
362
335
376
0
0
362
335
377
0
0
362
335
377
0
0
362
335
378
0
0
361
335
378
0
0
361
335
378
0
0
361
335
379
0
0
361
335
379
0
0
360
335
379
0
0
360
335
380
0
0
360
335
380
0
0
359
335
380
0
0
359
336
381
0
0
359
336
381
0
0
358
336
381
0
0
358
336
382
0
0
358
336
382
0
0
357
336
382
0
0
357
336
382
0
0
357
336
383
0
0
357
336
383
0
0
356
337
383
0
0
356
337
383
0
0
356
337
384
0
0
355
337
384
0
0
355
337
384
0
0
355
337
385
0
0
355
337
386
0
0
354
337
386
0
0
353
338
387
0
0
354
338
387
0
0
353
338
388
0
0
353
338
388
0
0
353
339
389
0
0
353
339
389
0
0
352
339
390
0
0
352
339
390
0
0
352
339
390
0
0
352
339
391
0
0
352
339
391
0
0
351
339
391
0
0
351
339
392
0
0
351
340
392
0
0
350
339
392
0
0
350
340
393
0
0
350
340
393
0
0
350
340
394
0
0
349
340
394
0
0
349
340
395
0
0
349
340
395
0
0
349
340
395
0
0
348
341
396
0
0
348
341
396
0
0
348
341
397
0
0
348
341
397
0
0
348
341
397
0
0
347
341
398
0
0
347
342
398
0
0
347
341
398
0
0
347
341
399
0
0
347
341
399
0
0
346
342
400
0
0
346
342
400
0
0
346
342
400
0
0
346
342
401
0
0
346
342
401
0
0
345
342
401
0
0
345
342
402
0
0
345
342
402
0
0
345
342
402
0
0
344
342
403
0
0
344
343
403
0
0
344
342
404
0
0
344
343
404
0
0
344
343
405
0
0
344
343
405
0
0
343
343
405
0
0
343
343
406
0
0
343
343
407
0
0
343
344
407
0
0
343
344
407
0
0
343
344
408
0
0
342
344
408
0
0
342
344
409
0
0
342
344
409
0
0
341
344
409
0
0
341
344
410
0
0
341
345
410
0
0
341
344
410
0
0
341
345
411
0
0
340
345
411
0
0
340
344
412
0
0
340
345
412
0
0
340
345
413
0
0
340
345
413
0
0
340
346
414
0
0
340
346
414
0
0
339
345
414
0
398
339
345
414
0
397
338
345
414
0
396
338
344
414
0
394
337
344
414
0
394
337
344
415
0
393
336
344
415
0
393
336
344
415
0
392
336
344
416
0
392
336
344
416
0
391
336
344
416
0
391
336
344
0
0
391
336
344
0
0
390
336
345
0
0
390
335
345
0
0
389
335
345
0
0
388
335
345
0
0
388
334
345
0
0
387
334
345
0
0
387
334
346
0
0
387
334
346
0
0
387
334
346
0
0
386
334
346
0
0
386
334
346
0
0
386
334
347
0
0
386
334
347
0
0
385
334
347
0
0
385
334
348
0
0
385
334
348
0
0
385
334
348
0
0
385
334
348
0
0
384
334
349
0
0
384
334
349
0
0
383
333
349
0
0
382
333
349
0
0
382
333
349
0
0
382
334
350
0
0
381
334
350
0
0
381
333
350
0
0
381
334
351
0
0
381
334
351
0
0
381
334
351
0
0
381
334
351
0
0
380
334
352
0
0
381
335
352
0
0
380
334
353
0
0
380
335
353
0
0
379
334
353
0
0
379
334
354
0
0
379
334
354
0
0
379
334
354
0
0
379
334
354
0
0
378
334
355
0
0
378
334
355
0
0
378
334
355
0
0
377
334
355
0
0
377
333
356
0
0
377
333
356
0
0
376
333
356
0
0
376
334
357
0
0
376
334
357
0
0
376
333
357
0
0
376
334
358
0
0
376
334
358
0
0
376
333
358
0
0
375
334
359
0
0
375
334
359
0
0
375
334
359
0
0
375
334
360
0
0
375
334
360
0
0
375
334
360
0
0
374
334
361
0
0
374
334
361
0
0
374
334
361
0
0
374
334
362
0
0
374
334
362
0
0
373
334
362
0
0
373
334
363
0
0
372
333
362
0
0
372
333
362
0
0
371
332
362
0
0
370
332
362
0
0
370
332
362
0
0
370
332
362
0
0
369
332
363
0
0
369
332
363
0
0
368
332
363
0
0
369
332
364
0
0
368
332
364
0
0
368
332
364
0
0
368
332
365
0
0
368
332
365
0
0
367
332
365
0
0
367
332
365
0
0
367
332
366
0
0
367
332
366
0
0
366
332
367
0
0
366
332
367
0
0
366
332
367
0
0
366
332
367
0
0
366
333
368
0
0
365
333
368
0
0
365
332
368
0
0
365
332
368
0
0
364
332
368
0
0
364
333
369
0
0
364
332
369
0
0
364
332
369
0
0
364
333
369
0
0
364
332
370
0
0
363
332
370
0
0
363
333
370
0
0
363
332
371
0
0
363
332
371
0
0
362
333
372
0
0
362
333
372
0
0
362
333
372
0
0
362
333
373
0
0
361
333
373
0
0
361
333
373
0
0
361
333
374
0
0
361
333
374
0
0
360
333
375
0
0
360
333
375
0
0
360
333
376
0
0
360
333
376
0
0
359
333
376
0
0
359
333
377
0
0
359
334
377
0
0
359
334
377
0
0
358
333
378
0
0
358
334
378
0
0
358
334
378
0
0
358
334
379
0
0
357
334
379
0
0
357
334
379
0
0
357
334
379
0
0
356
334
380
0
0
356
334
380
0
0
356
334
380
0
0
356
335
381
0
0
355
335
381
0
0
355
335
381
0
0
355
335
381
0
0
354
335
382
0
0
355
336
383
0
0
354
336
383
0
0
354
336
383
0
0
354
336
384
0
0
353
335
384
0
0
353
336
384
0
0
353
336
385
0
0
353
336
385
0
0
353
336
386
0
0
352
337
386
0
0
352
337
386
0
0
352
336
387
0
0
352
337
387
0
0
351
337
388
0
0
351
337
388
0
0
351
337
389
0
0
350
337
389
0
0
350
337
390
0
0
350
337
390
0
0
349
338
390
0
0
349
338
391
0
0
349
337
391
0
0
348
338
391
0
0
348
338
391
0
0
348
338
392
0
0
348
338
392
0
0
347
338
393
0
0
347
338
393
0
0
347
339
394
0
0
347
339
394
0
0
346
339
394
0
0
346
339
395
0
0
346
339
395
0
0
346
339
396
0
0
345
340
396
0
0
345
340
396
0
0
345
340
397
0
0
345
340
398
0
0
345
340
398
0
0
345
341
398
0
0
345
340
399
0
0
345
341
399
0
0
345
341
399
0
0
345
341
400
0
0
344
342
400
0
0
344
341
401
0
0
344
341
401
0
0
344
341
402
0
0
344
341
402
0
0
344
341
403
0
0
344
342
403
0
0
343
341
403
0
0
343
342
404
0
0
343
342
404
0
0
343
343
405
0
0
343
343
405
0
0
342
343
406
0
0
342
343
406
0
0
342
343
407
0
0
342
343
407
0
0
341
343
407
0
0
341
344
408
0
0
341
344
408
0
0
341
344
409
0
0
341
344
409
0
0
341
344
410
0
0
340
344
410
0
0
340
344
411
0
0
340
344
411
0
0
340
344
412
0
0
340
345
412
0
0
339
345
412
0
0
339
345
413
0
0
340
345
414
0
0
340
345
414
0
0
340
346
415
0
0
340
346
415
0
398
339
346
416
0
397
339
346
416
0
396
339
347
416
0
395
339
346
416
0
395
339
346
417
0
394
338
346
417
0
394
338
346
418
0
394
338
346
418
0
393
338
346
0
0
0
339
347
0
0
393
338
347
0
0
392
338
347
0
0
392
338
348
0
0
392
338
348
0
0
391
338
348
0
0
391
338
348
0
0
391
338
348
0
0
390
337
349
0
0
390
338
349
0
0
390
338
349
0
0
390
338
349
0
0
389
337
350
0
0
389
338
350
0
0
389
338
351
0
0
388
337
351
0
0
388
337
350
0
0
388
337
351
0
0
388
337
351
0
0
387
337
352
0
0
387
337
352
0
0
386
337
352
0
0
386
337
352
0
0
386
337
353
0
0
385
337
353
0
0
385
337
353
0
0
384
337
353
0
0
385
337
353
0
0
384
336
354
0
0
384
337
354
0
0
384
337
354
0
0
383
337
355
0
0
383
337
355
0
0
383
337
355
0
0
383
337
355
0
0
382
337
356
0
0
382
336
357
0
0
382
337
356
0
0
382
336
356
0
0
382
337
357
0
0
381
337
357
0
0
381
336
357
0
0
381
336
358
0
0
380
337
358
0
0
380
337
358
0
0
380
337
358
0
0
380
337
358
0
0
379
336
359
0
0
379
336
359
0
0
379
336
359
0
0
379
336
359
0
0
378
336
360
0
0
378
336
360
0
0
378
336
360
0
0
377
336
361
0
0
378
336
361
0
0
377
336
361
0
0
377
336
362
0
0
376
336
362
0
0
377
336
362
0
0
376
335
362
0
0
376
336
363
0
0
376
336
363
0
0
376
336
363
0
0
375
336
364
0
0
375
336
364
0
0
375
336
364
0
0
375
336
365
0
0
375
336
365
0
0
375
336
365
0
0
374
336
365
0
0
374
336
366
0
0
374
336
366
0
0
373
336
366
0
0
373
336
367
0
0
373
336
367
0
0
373
336
367
0
0
373
336
367
0
0
372
336
367
0
0
372
335
367
0
0
371
335
368
0
0
371
336
368
0
0
371
335
368
0
0
371
336
369
0
0
371
336
369
0
0
370
335
369
0
0
370
336
370
0
0
370
335
370
0
0
370
336
370
0
0
369
336
370
0
0
369
336
371
0
0
369
335
371
0
0
368
336
371
0
0
368
336
371
0
0
368
335
372
0
0
368
336
372
0
0
367
336
372
0
0
367
335
372
0
0
367
335
373
0
0
367
336
373
0
0
367
336
373
0
0
366
336
373
0
0
366
336
374
0
0
366
336
374
0
0
366
336
374
0
0
366
336
375
0
0
365
336
375
0
0
365
336
376
0
0
364
335
375
0
0
363
335
375
0
0
363
335
375
0
0
363
335
376
0
0
362
335
376
0
0
362
335
377
0
0
362
335
377
0
0
361
335
377
0
0
361
335
378
0
0
361
335
378
0
0
361
335
379
0
0
361
335
379
0
0
360
335
379
0
0
360
335
379
0
0
359
335
380
0
0
359
335
380
0
0
359
335
380
0
0
358
336
381
0
0
359
335
381
0
0
358
336
381
0
0
358
336
382
0
0
358
336
382
0
0
358
336
382
0
0
357
336
383
0
0
357
337
383
0
0
356
337
383
0
0
356
337
383
0
0
357
337
384
0
0
356
338
384
0
0
356
337
385
0
0
355
337
385
0
0
355
338
386
0
0
355
338
386
0
0
354
338
386
0
0
353
337
386
0
0
353
337
386
0
0
352
336
386
0
0
352
336
386
0
0
351
337
387
0
0
351
337
387
0
0
351
337
388
0
0
351
337
388
0
0
350
337
389
0
0
350
336
389
0
0
350
337
390
0
0
349
337
390
0
0
349
338
391
0
0
349
338
391
0
0
349
338
392
0
0
349
338
391
0
0
349
338
392
0
0
349
338
392
0
0
348
338
392
0
0
347
338
392
0
0
346
338
393
0
0
346
337
393
0
0
346
337
393
0
0
346
338
393
0
0
345
338
394
0
0
346
338
394
0
0
345
338
395
0
0
345
338
395
0
0
345
338
395
0
0
345
339
396
0
0
344
339
396
0
0
345
339
397
0
0
344
339
397
0
0
344
340
398
0
0
344
339
398
0
0
345
339
398
0
0
344
340
399
0
0
344
340
400
0
0
344
340
400
0
0
344
340
400
0
0
343
340
401
0
0
343
341
401
0
0
343
341
402
0
0
343
341
402
0
0
343
341
403
0
0
342
342
403
0
0
343
341
404
0
0
342
341
404
0
0
342
342
405
0
0
342
342
405
0
0
341
342
406
0
0
341
342
406
0
0
341
342
407
0
0
341
343
407
0
0
341
343
408
0
0
341
343
408
0
0
340
343
409
0
0
340
343
409
0
0
340
344
410
0
0
340
343
410
0
0
339
344
411
0
399
339
344
411
0
0
339
344
412
0
0
339
345
412
0
0
339
344
412
0
398
338
345
413
0
397
339
345
413
0
397
338
345
414
0
396
337
345
414
0
0
338
345
415
0
395
338
345
415
0
395
338
345
0
0
394
338
345
0
0
394
337
346
0
0
393
337
346
0
0
393
337
346
0
0
392
337
346
0
0
392
337
346
0
0
392
337
346
0
0
391
338
346
0
0
391
337
347
0
0
391
336
347
0
0
391
337
348
0
0
390
337
348
0
0
390
337
348
0
0
389
336
348
0
0
389
336
349
0
0
389
337
349
0
0
389
337
349
0
0
388
337
349
0
0
387
336
349
0
0
386
336
349
0
0
385
335
348
0
0
385
335
348
0
0
384
334
348
0
0
383
334
348
0
0
383
334
348
0
0
382
334
349
0
0
382
333
349
0
0
382
334
350
0
0
382
334
350
0
0
381
334
350
0
0
382
334
351
0
0
381
334
351
0
0
381
334
351
0
0
380
334
351
0
0
380
334
352
0
0
380
334
352
0
0
380
334
352
0
0
380
334
352
0
0
379
334
353
0
0
379
334
353
0
0
378
334
353
0
0
378
334
354
0
0
379
334
354
0
0
378
334
355
0
0
378
334
355
0
0
377
333
355
0
0
377
334
356
0
0
377
334
356
0
0
378
334
356
0
0
377
334
357
0
0
377
334
357
0
0
377
334
358
0
0
376
334
358
0
0
376
334
358
0
0
375
335
358
0
0
376
334
359
0
0
375
334
359
0
0
375
334
360
0
0
375
334
360
0
0
375
334
360
0
0
375
334
361
0
0
374
334
361
0
0
374
334
361
0
0
374
334
362
0
0
374
334
362
0
0
373
334
362
0
0
373
334
362
0
0
373
334
363
0
0
373
334
363
0
0
373
334
364
0
0
372
334
363
0
0
372
334
364
0
0
372
334
365
0
0
371
334
365
0
0
371
334
365
0
0
371
334
365
0
0
371
334
366
0
0
371
335
366
0
0
370
334
367
0
0
370
334
367
0
0
370
334
367
0
0
370
335
368
0
0
369
334
368
0
0
369
334
368
0
0
369
334
368
0
0
368
334
368
0
0
368
334
369
0
0
368
334
369
0
0
368
334
369
0
0
367
334
370
0
0
367
335
370
0
0
367
334
370
0
0
367
334
371
0
0
366
334
371
0
0
366
334
371
0
0
366
334
371
0
0
365
334
371
0
0
365
334
371
0
0
365
334
372
0
0
365
334
372
0
0
364
334
372
0
0
364
335
372
0
0
364
334
373
0
0
363
334
374
0
0
363
334
374
0
0
363
334
374
0
0
362
334
375
0
0
362
334
375
0
0
362
334
376
0
0
362
334
376
0
0
362
334
377
0
0
361
334
377
0
0
361
334
377
0
0
360
334
378
0
0
361
335
378
0
0
361
335
379
0
0
360
335
379
0
0
359
335
379
0
0
359
335
379
0
0
359
335
380
0
0
359
335
380
0
0
358
336
381
0
0
358
336
381
0
0
358
335
381
0
0
357
335
381
0
0
357
336
382
0
0
356
336
382
0
0
356
336
382
0
0
356
336
383
0
0
356
336
383
0
0
355
336
383
0
0
355
336
384
0
0
355
337
384
0
0
354
337
384
0
0
354
337
385
0
0
354
337
385
0
0
353
337
386
0
0
353
337
386
0
0
353
337
386
0
0
352
337
387
0
0
352
338
387
0
0
352
337
387
0
0
351
337
388
0
0
351
337
389
0
0
351
338
388
0
0
350
338
389
0
0
350
338
390
0
0
350
338
390
0
0
349
338
390
0
0
349
338
391
0
0
349
338
392
0
0
348
338
392
0
0
348
339
392
0
0
348
339
393
0
0
348
339
393
0
0
348
339
393
0
0
347
340
394
0
0
347
339
394
0
0
346
340
395
0
0
347
340
395
0
0
347
340
396
0
0
346
340
396
0
0
346
340
397
0
0
347
340
397
0
0
346
341
398
0
0
346
341
397
0
0
346
341
399
0
0
346
341
399
0
0
345
341
399
0
0
345
341
399
0
0
345
341
400
0
0
345
341
400
0
0
344
341
400
0
0
344
341
401
0
0
344
341
401
0
0
344
341
402
0
0
343
341
402
0
0
343
341
402
0
0
342
342
403
0
0
343
341
404
0
0
342
342
404
0
0
342
342
405
0
0
342
342
405
0
0
342
342
406
0
0
341
343
406
0
0
341
343
406
0
0
341
342
407
0
0
341
343
407
0
0
340
344
408
0
0
341
344
408
0
0
341
344
409
0
0
340
344
409
0
0
340
345
410
0
400
340
344
411
0
0
340
344
411
0
0
339
343
411
0
0
339
344
412
0
399
339
344
412
0
398
338
343
413
0
398
337
343
413
0
398
338
343
413
0
398
337
343
414
0
397
336
343
0
0
397
336
343
0
0
396
336
343
0
0
396
336
343
0
0
395
336
343
0
0
395
336
343
0
0
395
336
344
418
0
394
336
344
0
0
394
336
344
0
0
393
336
344
0
0
393
336
344
0
0
393
336
344
0
0
392
336
344
0
0
393
335
344
421
0
392
335
345
0
0
391
335
345
0
0
391
335
345
0
0
391
335
345
0
0
391
335
346
0
0
390
335
346
0
0
390
335
347
0
0
390
335
347
0
0
389
335
347
0
0
389
335
347
0
0
389
335
348
0
0
389
335
348
0
0
388
335
348
0
0
387
335
348
0
0
387
335
349
0
0
387
334
349
0
0
385
335
350
0
0
385
334
350
0
0
384
335
352
0
0
384
337
353
0
0
384
338
354
0
0
384
338
355
0
0
383
338
355
0
0
383
338
355
0
0
383
338
355
0
0
383
338
355
0
0
383
338
355
0
0
383
337
356
0
0
382
337
356
0
0
381
337
356
0
0
381
337
357
0
0
381
337
357
0
0
380
337
357
0
0
380
337
357
0
0
380
337
358
0
0
380
338
358
0
0
380
338
358
0
0
379
337
359
0
0
379
337
359
0
0
378
337
360
0
0
378
337
360
0
0
377
337
360
0
0
377
337
360
0
0
377
337
360
0
0
377
336
361
0
0
377
337
361
0
0
377
337
362
0
0
376
337
362
0
0
377
336
362
0
0
376
336
363
0
0
375
337
363
0
0
376
336
363
0
0
375
337
363
0
0
375
336
364
0
0
375
336
364
0
0
374
336
364
0
0
374
336
364
0
0
373
336
365
0
0
374
336
365
0
0
374
336
365
0
0
372
336
365
0
0
372
336
366
0
0
372
336
366
0
0
372
336
366
0
0
372
336
367
0
0
371
335
367
0
0
371
336
367
0
0
371
336
368
0
0
371
336
368
0
0
371
336
368
0
0
370
336
369
0
0
370
336
369
0
0
370
336
369
0
0
369
336
369
0
0
369
336
370
0
0
369
336
370
0
0
368
336
370
0
0
368
336
370
0
0
369
336
371
0
0
368
335
371
0
0
368
336
371
0
0
367
335
372
0
0
367
336
372
0
0
367
336
373
0
0
367
336
372
0
0
366
336
372
0
0
366
336
389
0
0
366
336
373
0
0
366
336
374
0
0
365
336
374
0
0
365
336
374
0
0
365
336
374
0
0
364
336
375
0
0
364
336
375
0
0
364
336
376
0
0
364
336
376
0
0
363
336
376
0
0
363
336
377
0
0
363
336
377
0
0
362
336
378
0
0
362
336
378
0
0
362
336
378
0
0
361
336
379
0
0
361
336
379
0
0
361
336
379
0
0
361
336
380
0
0
360
336
380
0
0
360
336
380
0
0
359
337
381
0
0
359
336
380
0
0
359
336
381
0
0
358
335
381
0
0
358
336
381
0
0
358
336
382
0
0
357
337
382
0
0
357
337
382
0
0
357
337
382
0
0
357
337
383
0
0
356
337
383
0
0
356
337
383
0
0
356
337
384
0
0
355
338
384
0
0
355
337
384
0
0
355
337
385
0
0
355
337
385
0
0
354
338
386
0
0
354
338
386
0
0
354
338
387
0
0
353
339
388
0
0
353
338
388
0
0
353
338
388
0
0
353
339
389
0
0
352
339
389
0
0
352
339
390
0
0
352
339
390
0
0
352
339
390
0
0
351
339
391
0
0
351
339
391
0
0
351
340
392
0
0
350
339
392
0
0
350
340
393
0
0
350
340
393
0
0
350
340
394
0
0
349
340
394
0
0
349
340
394
0
0
349
341
395
0
0
348
340
395
0
0
348
340
396
0
0
348
341
396
0
0
348
341
397
0
0
348
342
397
0
0
347
342
397
0
0
347
341
397
0
0
347
341
398
0
0
346
341
398
0
0
346
341
398
0
0
346
342
399
0
0
346
342
400
0
0
346
342
400
0
0
346
342
400
0
0
346
342
401
0
0
346
342
401
0
0
345
342
401
0
0
345
342
402
0
0
345
342
403
0
0
345
343
404
0
0
345
343
404
0
0
344
343
404
0
0
344
343
405
0
0
344
343
405
0
0
344
344
406
0
0
343
344
406
0
0
343
344
407
0
0
343
344
407
0
0
343
344
408
0
0
343
344
408
0
0
343
345
409
0
404
341
345
409
0
0
342
345
410
0
0
342
345
410
0
0
341
345
411
0
0
341
345
411
0
0
341
345
411
0
0
341
346
412
0
0
341
345
412
0
400
340
346
413
0
399
341
346
414
0
399
340
346
414
0
398
340
346
414
0
398
339
346
415
0
397
339
346
415
0
397
339
346
415
0
396
339
346
416
0
395
339
346
416
0
395
338
346
417
0
394
338
346
417
0
394
338
346
417
0
393
339
346
0
0
393
338
347
0
0
392
338
347
0
0
391
338
347
0
0
391
337
346
0
0
390
337
347
0
0
389
336
346
0
0
388
336
346
0
0
388
335
346
0
0
387
336
346
0
0
387
336
347
0
0
387
337
348
0
0
387
336
348
0
0
386
336
349
0
0
386
336
348
0
0
386
336
349
0
0
386
335
349
0
0
386
335
349
0
0
385
335
349
0
0
385
335
349
0
0
384
336
350
0
0
383
336
351
0
0
384
335
351
0
0
383
335
351
0
0
383
335
351
0
0
382
335
351
0
0
382
335
351
0
0
382
335
352
0
0
381
335
352
0
0
381
335
352
0
0
381
335
353
0
0
381
335
353
0
0
380
335
353
0
0
380
335
353
0
0
380
335
354
0
0
380
335
355
0
0
379
335
354
0
0
379
336
355
0
0
379
335
355
0
0
379
336
356
0
0
379
335
356
0
0
379
336
356
0
0
378
336
357
0
0
378
336
357
0
0
377
335
357
0
0
378
336
358
0
0
377
336
358
0
0
377
335
358
0
0
377
335
359
0
0
377
335
359
0
0
376
336
359
0
0
376
335
359
0
0
375
335
360
0
0
375
335
360
0
0
376
335
360
0
0
376
335
361
0
0
376
335
361
0
0
375
335
361
0
0
375
335
362
0
0
375
336
362
0
0
374
335
362
0
0
375
335
363
0
0
374
335
363
0
0
374
335
364
0
0
373
336
364
0
0
373
335
365
0
0
373
336
365
0
0
373
335
365
0
0
373
335
365
0
0
372
336
366
0
0
372
336
366
0
0
372
335
366
0
0
371
336
367
0
0
371
335
366
0
0
371
335
367
0
0
370
335
367
0
0
370
335
368
0
0
370
335
368
0
0
370
336
369
0
0
369
335
368
0
0
369
335
369
0
0
369
335
370
0
0
368
335
369
0
0
368
336
370
0
0
368
335
370
0
0
368
335
370
0
0
367
335
370
0
0
368
335
371
0
0
367
335
371
0
0
366
335
371
0
0
366
335
371
0
0
366
335
372
0
0
366
336
372
0
0
365
336
373
0
0
365
335
372
0
0
365
335
373
0
0
365
336
373
0
0
364
336
374
0
0
364
335
374
0
0
364
337
375
0
0
363
336
375
0
0
363
335
375
0
0
363
335
375
0
0
362
335
376
0
0
363
336
377
0
0
362
336
377
0
0
362
335
377
0
0
362
336
378
0
0
361
336
378
0
0
361
336
378
0
0
360
336
379
0
0
360
336
379
0
0
360
336
379
0
0
359
336
380
0
0
360
336
380
0
0
359
336
380
0
0
359
336
381
0
0
359
336
381
0
0
359
336
381
0
0
358
336
382
0
0
358
336
382
0
0
358
337
382
0
0
357
336
382
0
0
356
336
383
0
0
357
337
383
0
0
356
338
383
0
0
356
337
383
0
0
356
337
384
0
0
355
337
384
0
0
355
338
385
0
0
355
337
385
0
0
354
338
385
0
0
354
337
386
0
0
354
338
387
0
0
354
338
387
0
0
353
338
387
0
0
353
338
388
0
0
353
338
388
0
0
353
339
389
0
0
352
339
389
0
0
352
340
390
0
0
352
339
390
0
0
352
339
391
0
0
351
339
391
0
0
351
339
391
0
0
350
339
392
0
0
350
340
392
0
0
350
340
392
0
0
349
339
393
0
0
349
340
393
0
0
349
340
394
0
0
348
340
394
0
0
349
340
395
0
0
348
341
395
0
0
348
341
395
0
0
348
341
396
0
0
347
341
397
0
0
347
341
397
0
0
347
342
397
0
0
347
342
398
0
0
346
342
398
0
0
347
342
399
0
0
346
342
399
0
0
347
342
399
0
0
346
342
400
0
0
346
342
400
0
0
346
342
400
0
0
346
342
401
0
0
346
343
402
0
0
345
343
402
0
0
345
343
403
0
0
345
343
403
0
0
345
343
404
0
0
344
343
404
0
0
344
343
404
0
0
344
343
404
0
0
344
343
405
0
0
343
344
406
0
0
343
344
406
0
0
343
344
407
0
0
342
344
407
0
0
343
344
408
0
0
342
344
408
0
0
342
344
409
0
0
342
344
409
0
0
342
345
410
0
0
342
346
410
0
402
342
345
411
0
402
341
345
411
0
401
341
345
412
0
400
341
346
413
0
400
340
345
412
0
0
340
346
413
0
399
340
345
413
0
398
339
345
413
0
398
339
345
414
0
397
339
346
414
0
396
339
346
0
0
395
338
346
415
0
395
339
346
0
0
394
338
345
416
0
394
338
347
0
0
393
338
346
417
0
393
338
346
417
0
393
338
347
0
0
392
337
346
418
0
392
337
347
0
0
391
337
347
419
0
390
337
347
0
0
390
337
347
0
0
390
337
347
0
0
389
337
348
0
0
389
337
348
0
0
389
337
349
0
0
389
337
348
0
0
388
337
349
0
0
388
337
349
0
0
388
336
349
0
0
387
337
350
0
0
387
337
350
0
0
387
337
350
0
0
386
336
350
0
0
386
336
350
0
0
385
336
351
0
0
385
336
351
0
0
384
336
352
0
0
384
336
351
0
0
384
336
352
0
0
383
336
353
0
0
383
336
353
0
0
383
336
353
0
0
383
336
353
0
0
382
336
354
0
0
382
336
354
0
0
382
336
354
0
0
382
336
355
0
0
381
336
355
0
0
381
336
355
0
0
381
336
356
0
0
380
336
355
0
0
380
336
356
0
0
380
336
356
0
0
379
335
357
0
0
379
335
357
0
0
379
335
357
0
0
379
336
358
0
0
378
336
358
0
0
378
335
358
0
0
378
335
359
0
0
377
335
359
0
0
377
335
359
0
0
376
335
360
0
0
376
335
360
0
0
376
335
360
0
0
376
335
361
0
0
375
335
361
0
0
375
335
361
0
0
375
335
362
0
0
374
335
362
0
0
374
335
363
0
0
374
335
363
0
0
374
335
364
0
0
373
335
364
0
0
373
335
365
0
0
372
335
365
0
0
372
335
365
0
0
372
335
366
0
0
372
335
366
0
0
371
335
366
0
0
371
335
367
0
0
371
335
368
0
0
370
335
368
0
0
370
335
368
0
0
369
335
369
0
0
369
335
369
0
0
369
335
369
0
0
368
334
369
0
0
367
334
370
0
0
367
334
370
0
0
367
335
370
0
0
366
334
371
0
0
366
334
371
0
0
365
334
371
0
0
365
334
372
0
0
365
334
372
0
0
364
335
373
0
0
364
335
373
0
0
364
335
374
0
0
363
335
375
0
0
363
335
375
0
0
362
334
376
0
0
362
334
376
0
0
362
335
377
0
0
361
335
377
0
0
361
335
378
0
0
360
335
379
0
0
360
335
379
0
0
360
336
380
0
0
359
335
380
0
0
359
336
380
0
0
358
336
381
0
0
358
336
381
0
0
357
336
382
0
0
357
337
382
0
0
356
337
383
0
0
356
337
383
0
0
356
338
384
0
0
355
337
384
0
0
355
337
385
0
0
354
337
385
0
0
354
338
386
0
0
354
338
387
0
0
353
338
388
0
0
353
338
388
0
0
352
338
389
0
0
352
339
390
0
0
351
339
390
0
0
351
339
390
0
0
350
339
391
0
0
350
339
392
0
0
350
339
392
0
0
349
339
393
0
0
349
340
393
0
0
348
339
394
0
0
348
340
395
0
0
348
340
395
0
0
347
341
397
0
0
347
340
396
0
0
346
341
396
0
0
347
341
396
0
0
347
341
397
0
0
346
342
397
0
0
346
341
398
0
0
346
341
399
0
0
346
342
399
0
0
345
342
399
0
0
345
342
400
0
0
345
342
401
0
0
345
342
401
0
0
344
343
402
0
0
344
343
403
0
0
344
343
404
0
0
343
343
404
0
0
343
343
405
0
0
342
343
405
0
0
342
344
406
0
0
342
344
407
0
0
341
344
408
0
0
341
344
408
0
0
341
345
409
0
0
341
344
410
0
0
340
345
410
0
0
340
345
411
0
398
340
345
412
0
398
340
346
412
0
396
340
346
413
0
396
340
346
414
0
395
339
346
415
0
394
339
346
415
0
393
339
346
416
0
392
339
346
416
0
392
338
346
417
0
391
338
347
418
0
390
338
347
418
0
389
338
347
419
0
389
337
347
420
0
388
337
348
420
0
388
337
348
421
0
386
337
348
423
0
387
336
349
0
0
386
337
349
0
0
386
337
349
0
0
385
336
350
0
0
385
336
350
0
0
384
336
351
0
0
383
336
351
0
0
383
336
351
0
0
382
336
352
0
0
382
335
352
0
0
381
336
353
0
0
381
336
353
0
0
381
336
354
0
0
381
336
354
0
0
380
336
355
0
0
380
336
355
0
0
378
336
356
0
0
379
336
356
0
0
378
335
357
0
0
378
336
357
0
0
377
335
357
0
0
376
336
358
0
0
377
335
358
0
0
377
335
359
0
0
376
335
359
0
0
375
335
360
0
0
374
335
360
0
0
374
334
360
0
0
373
334
360
0
0
373
334
361
0
0
373
334
361
0
0
373
334
362
0
0
372
334
362
0
0
371
334
363
0
0
371
334
364
0
0
371
334
364
0
0
371
335
365
0
0
371
334
365
0
0
370
335
366
0
0
369
335
366
0
0
369
335
367
0
0
369
335
367
0
0
368
335
368
0
0
368
334
368
0
0
367
335
369
0
0
367
334
369
0
0
366
334
369
0
0
366
334
370
0
0
366
335
370
0
0
365
334
371
0
0
365
334
371
0
0
364
334
372
0
0
364
334
372
0
0
363
334
372
0
0
363
334
373
0
0
362
334
374
0
0
362
334
374
0
0
361
334
375
0
0
360
334
375
0
0
360
334
376
0
0
360
334
376
0
0
359
334
377
0
0
359
335
378
0
0
358
334
378
0
0
358
334
379
0
0
357
335
380
0
0
357
335
380
0
0
356
335
380
0
0
356
335
381
0
0
355
335
381
0
0
355
335
382
0
0
354
335
383
0
0
354
335
383
0
0
353
335
384
0
0
352
337
385
0
0
352
337
385
0
0
352
337
386
0
0
352
338
387
0
0
352
338
389
0
0
350
337
389
0
0
351
338
390
0
0
350
338
390
0
0
350
338
392
0
0
348
339
392
0
0
348
338
393
0
0
348
338
393
0
0
348
339
393
0
0
347
339
395
0
0
346
339
395
0
0
346
340
396
0
0
345
340
397
0
0
346
340
398
0
0
345
340
398
0
0
346
341
400
0
0
345
341
401
0
0
344
341
401
0
0
343
341
401
0
0
344
342
403
0
0
343
341
404
0
0
343
342
405
0
0
343
343
406
0
0
342
343
406
0
0
341
343
407
0
0
341
343
408
0
0
340
344
409
0
0
341
344
410
0
402
339
344
411
0
401
339
345
411
0
400
339
345
412
0
399
339
345
414
0
398
339
345
415
0
397
339
345
415
0
396
338
346
0
0
395
338
345
417
0
394
337
346
0
0
394
337
346
0
0
393
337
347
0
0
392
338
347
0
0
391
337
348
0
0
390
338
348
0
0
390
336
348
0
0
389
337
350
0
0
389
336
349
0
0
388
336
349
0
0
387
336
350
0
0
387
336
350
0
0
386
336
351
0
0
386
336
351
0
0
384
336
352
0
0
384
336
352
0
0
384
335
352
0
0
383
335
353
0
0
381
335
354
0
0
381
335
354
0
0
381
335
355
0
0
380
335
355
0
0
380
335
356
0
0
379
335
356
0
0
379
335
357
0
0
379
334
357
0
0
378
335
358
0
0
378
335
359
0
0
377
334
359
0
0
377
335
360
0
0
376
334
360
0
0
376
335
361
0
0
376
334
361
0
0
375
334
362
0
0
375
334
363
0
0
374
335
363
0
0
374
335
364
0
0
373
334
364
0
0
373
334
365
0
0
372
334
365
0
0
372
334
366
0
0
371
334
367
0
0
371
334
367
0
0
370
334
368
0
0
370
335
368
0
0
369
334
369
0
0
369
334
369
0
0
368
334
370
0
0
368
334
370
0
0
367
334
371
0
0
366
334
371
0
0
366
334
371
0
0
365
334
372
0
0
365
334
372
0
0
364
334
373
0
0
364
334
374
0
0
363
334
375
0
0
363
334
376
0
0
362
334
376
0
0
361
334
377
0
0
361
334
378
0
0
360
334
378
0
0
360
334
379
0
0
359
335
379
0
0
358
335
380
0
0
358
335
381
0
0
358
335
381
0
0
357
335
382
0
0
357
336
382
0
0
355
336
383
0
0
355
336
383
0
0
354
336
384
0
0
354
336
385
0
0
353
336
386
0
0
353
336
386
0
0
352
337
387
0
0
351
337
388
0
0
351
337
389
0
0
351
337
390
0
0
350
338
391
0
0
349
338
391
0
0
349
338
392
0
0
348
338
393
0
0
348
338
393
0
0
347
339
395
0
0
347
339
395
0
0
346
339
396
0
0
346
340
396
0
0
346
340
398
0
0
346
340
398
0
0
345
340
399
0
0
345
340
400
0
0
345
341
400
0
0
345
341
401
0
0
344
341
402
0
0
344
342
403
0
0
344
342
404
0
0
343
342
405
0
0
343
343
405
0
0
343
343
407
0
0
343
343
407
0
0
342
343
408
0
0
341
343
409
0
0
340
344
410
0
0
340
344
410
0
0
340
344
412
0
0
340
344
412
0
0
340
345
413
0
0
339
345
414
0
0
339
345
415
0
398
339
345
416
0
397
338
345
416
0
396
338
346
417
0
395
338
346
418
0
394
338
346
419
0
393
337
346
0
0
393
337
346
0
0
392
337
347
0
0
392
337
347
0
0
391
337
348
0
0
391
336
347
0
0
389
335
347
0
0
389
335
348
0
0
388
335
348
0
0
388
335
348
0
0
387
335
350
0
0
386
335
349
0
0
385
335
350
0
0
385
335
350
0
0
384
335
351
0
0
384
335
351
0
0
383
335
352
0
0
384
335
352
0
0
383
335
353
0
0
382
335
354
0
0
382
335
354
0
0
381
335
355
0
0
381
334
354
0
0
380
334
355
0
0
380
335
356
0
0
379
333
355
0
0
379
333
355
0
0
379
332
356
0
0
378
332
357
0
0
377
332
357
0
0
377
333
358
0
0
376
331
357
0
0
376
331
358
0
0
376
332
359
0
0
376
331
360
0
0
375
332
360
0
0
375
331
360
0
0
374
331
362
0
0
373
331
362
0
0
373
331
362
0
0
373
331
363
0
0
372
331
363
0
0
372
331
364
0
0
371
331
365
0
0
371
331
365
0
0
370
331
366
0
0
369
331
366
0
0
369
331
367
0
0
369
331
367
0
0
368
331
368
0
0
368
331
368
0
0
368
332
369
0
0
366
331
370
0
0
366
331
369
0
0
364
330
369
0
0
364
330
369
0
0
363
330
370
0
0
362
330
371
0
0
360
329
371
0
0
359
329
371
0
0
360
329
371
0
0
358
331
372
0
0
358
331
373
0
0
358
332
373
0
0
357
332
374
0
0
356
331
375
0
0
356
331
376
0
0
355
330
376
0
0
354
331
376
0
0
354
331
377
0
0
353
332
378
0
0
353
332
378
0
0
353
333
379
0
0
352
332
379
0
0
351
332
380
0
0
351
332
381
0
0
350
333
382
0
0
350
333
382
0
0
350
334
383
0
0
349
335
384
0
0
348
333
385
0
0
348
334
385
0
0
347
334
386
0
0
347
334
387
0
0
347
334
388
0
0
346
335
389
0
0
346
335
389
0
0
345
335
390
0
0
344
335
391
0
0
344
335
391
0
0
343
336
392
0
0
343
336
393
0
0
343
336
393
0
0
342
337
394
0
0
343
337
395
0
0
342
337
396
0
0
342
338
397
0
0
341
339
398
0
0
342
338
399
0
0
342
339
400
0
0
341
339
400
0
0
341
338
401
0
0
341
339
402
0
0
340
339
403
0
0
340
339
404
0
0
339
340
404
0
0
339
340
406
0
0
339
340
406
0
0
338
341
407
0
0
338
341
408
0
0
337
341
409
0
0
337
342
409
0
0
337
342
410
0
0
337
342
411
0
0
337
342
413
0
0
337
343
413
0
0
337
343
414
0
395
336
343
415
0
394
336
344
416
0
393
336
344
0
0
393
336
344
0
0
392
335
345
0
0
391
336
345
0
0
390
335
345
0
0
390
335
347
0
0
389
336
347
0
0
389
335
347
0
0
388
335
347
0
0
388
335
348
0
0
387
335
349
0
0
386
335
349
0
0
386
335
350
0
0
385
335
350
0
0
384
335
350
0
0
384
335
351
0
0
383
335
351
0
0
382
335
352
0
0
383
334
352
0
0
382
335
353
0
0
381
335
353
0
0
381
334
354
0
0
381
334
354
0
0
380
334
355
0
0
380
334
355
0
0
379
334
356
0
0
379
334
356
0
0
379
334
357
0
0
378
334
357
0
0
377
334
358
0
0
377
334
358
0
0
377
334
359
0
0
376
334
360
0
0
375
334
360
0
0
376
334
361
0
0
375
334
362
0
0
375
334
363
0
0
374
334
363
0
0
373
334
364
0
0
373
334
364
0
0
373
334
365
0
0
372
334
365
0
0
372
334
366
0
0
371
334
366
0
0
371
334
367
0
0
370
334
368
0
0
370
334
368
0
0
369
334
369
0
0
369
334
369
0
0
368
334
369
0
0
368
334
370
0
0
367
334
370
0
0
367
334
370
0
0
366
334
371
0
0
366
334
372
0
0
365
334
372
0
0
365
334
373
0
0
364
334
374
0
0
364
334
374
0
0
363
334
375
0
0
363
334
376
0
0
362
334
377
0
0
362
335
377
0
0
361
334
378
0
0
361
334
379
0
0
360
334
379
0
0
360
335
380
0
0
359
335
380
0
0
359
334
381
0
0
358
336
381
0
0
357
335
382
0
0
357
336
382
0
0
356
336
383
0
0
356
336
383
0
0
355
336
384
0
0
355
336
385
0
0
354
336
386
0
0
354
337
387
0
0
353
337
387
0
0
353
337
388
0
0
352
338
389
0
0
351
338
390
0
0
351
338
390
0
0
350
338
390
0
0
350
338
391
0
0
349
338
391
0
0
348
338
392
0
0
348
338
393
0
0
347
338
393
0
0
346
338
394
0
0
346
338
395
0
0
345
339
396
0
0
345
339
397
0
0
345
339
397
0
0
345
340
398
0
0
345
340
399
0
0
344
340
400
0
0
344
340
400
0
0
344
340
401
0
0
344
340
402
0
0
343
341
403
0
0
343
341
403
0
0
343
341
404
0
0
342
342
405
0
0
342
342
406
0
0
341
342
406
0
0
341
342
407
0
0
341
343
409
0
0
340
343
409
0
0
340
343
410
0
0
340
343
411
0
0
339
344
412
0
0
339
344
412
0
0
339
345
413
0
0
339
345
414
0
0
338
345
415
0
397
338
345
416
0
396
338
346
416
0
395
338
345
417
0
395
338
346
418
0
394
337
346
0
0
393
337
347
0
0
393
337
347
0
0
392
337
347
0
0
391
337
348
0
0
391
337
348
0
0
390
337
348
0
0
390
336
349
0
0
389
337
349
0
0
389
336
350
0
0
388
336
350
0
0
387
336
350
0
0
386
336
351
0
0
386
336
351
0
0
385
336
352
0
0
385
336
352
0
0
384
336
353
0
0
384
336
353
0
0
383
336
354
0
0
383
336
354
0
0
382
336
354
0
0
381
336
354
0
0
381
335
355
0
0
380
335
356
0
0
380
335
356
0
0
379
335
357
0
0
379
335
357
0
0
379
335
358
0
0
378
335
358
0
0
378
335
359
0
0
377
335
359
0
0
377
335
360
0
0
377
335
361
0
0
376
335
361
0
0
376
335
362
0
0
376
334
362
0
0
375
335
363
0
0
375
334
363
0
0
374
335
364
0
0
374
335
364
0
0
373
334
365
0
0
373
335
365
0
0
372
334
366
0
0
372
334
366
0
0
371
334
367
0
0
371
335
367
0
0
371
334
368
0
0
370
334
368
0
0
370
335
369
0
0
369
334
369
0
0
368
334
369
0
0
368
334
370
0
0
368
334
370
0
0
367
334
371
0
0
367
334
371
0
0
367
334
372
0
0
366
334
372
0
0
365
334
372
0
0
365
334
373
0
0
364
334
374
0
0
364
334
374
0
0
364
334
375
0
0
363
334
376
0
0
362
334
377
0
0
362
335
377
0
0
361
335
378
0
0
361
334
379
0
0
360
334
379
0
0
360
334
380
0
0
359
335
380
0
0
359
335
381
0
0
359
335
381
0
0
358
336
382
0
0
357
336
382
0
0
357
336
383
0
0
356
336
383
0
0
355
336
384
0
0
355
336
384
0
0
354
336
385
0
0
354
336
386
0
0
353
336
386
0
0
352
337
387
0
0
352
337
388
0
0
352
337
389
0
0
351
338
389
0
0
351
338
390
0
0
350
338
391
0
0
350
338
392
0
0
349
338
392
0
0
348
338
393
0
0
348
339
394
0
0
348
339
394
0
0
347
339
395
0
0
347
339
396
0
0
347
340
397
0
0
346
340
397
0
0
346
340
398
0
0
346
340
399
0
0
345
341
399
0
0
345
340
400
0
0
345
341
400
0
0
344
341
401
0
0
344
341
402
0
0
344
341
403
0
0
344
342
404
0
0
344
342
404
0
0
343
342
405
0
0
343
342
406
0
0
342
342
407
0
0
342
343
408
0
0
341
344
409
0
0
342
344
410
0
0
341
344
410
0
0
341
344
411
0
0
340
344
412
0
0
340
344
413
0
0
340
345
414
0
0
340
346
415
0
0
340
346
416
0
399
339
346
416
0
397
339
346
417
0
397
339
347
418
0
396
338
346
418
0
395
338
347
0
0
394
338
347
0
0
394
338
347
0
0
393
338
348
0
0
392
338
348
0
0
391
337
348
0
0
391
337
349
0
0
391
337
349
0
0
390
337
349
0
0
389
337
350
0
0
389
337
351
0
0
388
337
351
0
0
387
337
351
0
0
387
336
352
0
0
386
337
352
0
0
385
336
352
0
0
385
336
352
0
0
384
336
353
0
0
384
336
353
0
0
383
336
354
0
0
383
336
354
0
0
383
335
355
0
0
382
336
355
0
0
381
335
355
0
0
381
335
356
0
0
380
336
357
0
0
380
335
357
0
0
379
335
357
0
0
379
335
358
0
0
379
335
358
0
0
378
335
359
0
0
378
335
359
0
0
377
335
360
0
0
377
335
360
0
0
377
335
361
0
0
376
335
362
0
0
376
335
362
0
0
375
335
363
0
0
375
335
363
0
0
375
335
364
0
0
374
335
364
0
0
374
335
365
0
0
373
335
365
0
0
373
335
366
0
0
372
335
367
0
0
372
335
368
0
0
372
335
368
0
0
371
335
369
0
0
371
335
369
0
0
370
335
369
0
0
370
335
370
0
0
369
335
370
0
0
369
335
371
0
0
368
334
371
0
0
368
335
371
0
0
367
335
372
0
0
367
335
372
0
0
367
335
373
0
0
366
335
373
0
0
365
335
373
0
0
365
335
374
0
0
365
335
375
0
0
363
335
375
0
0
363
335
376
0
0
363
335
377
0
0
362
335
378
0
0
362
335
378
0
0
361
335
379
0
0
361
335
379
0
0
360
335
380
0
0
360
335
380
0
0
359
335
381
0
0
359
336
382
0
0
358
336
382
0
0
358
336
382
0
0
357
336
383
0
0
357
336
383
0
0
356
337
384
0
0
356
337
384
0
0
355
337
385
0
0
355
337
386
0
0
354
337
387
0
0
354
337
387
0
0
353
337
388
0
0
352
338
389
0
0
352
338
389
0
0
351
338
390
0
0
351
338
391
0
0
351
338
392
0
0
350
338
392
0
0
349
339
393
0
0
349
339
393
0
0
348
339
394
0
0
348
339
394
0
0
347
339
395
0
0
347
340
396
0
0
347
339
397
0
0
346
340
397
0
0
346
340
398
0
0
346
340
399
0
0
345
340
399
0
0
345
341
400
0
0
345
341
401
0
0
345
341
402
0
0
344
342
402
0
0
344
342
403
0
0
344
342
404
0
0
344
342
405
0
0
344
342
405
0
0
342
343
406
0
0
343
343
407
0
0
342
343
408
0
0
342
344
408
0
0
342
344
410
0
0
341
343
411
0
0
341
344
411
0
0
340
345
412
0
0
340
345
413
0
0
340
345
413
0
0
340
345
414
0
0
340
346
415
0
0
340
346
416
0
0
340
346
417
0
398
339
346
417
0
397
339
346
418
0
396
339
347
419
0
395
339
347
0
0
395
338
347
0
0
394
339
347
0
0
393
338
347
0
0
393
338
348
0
0
392
337
348
0
0
391
338
349
0
0
391
338
349
0
0
391
337
350
0
0
390
338
350
0
0
390
338
351
0
0
389
337
351
0
0
389
337
352
0
0
388
337
352
0
0
387
337
352
0
0
386
337
352
0
0
386
337
353
0
0
385
337
353
0
0
385
337
353
0
0
384
336
354
0
0
384
336
355
0
0
383
336
355
0
0
383
336
355
0
0
383
336
355
0
0
382
336
356
0
0
382
336
357
0
0
381
336
357
0
0
381
336
357
0
0
380
336
358
0
0
380
336
358
0
0
379
335
359
0
0
379
336
359
0
0
378
336
360
0
0
378
336
360
0
0
378
335
361
0
0
377
335
361
0
0
377
335
362
0
0
377
335
362
0
0
376
335
363
0
0
376
335
363
0
0
375
335
363
0
0
375
335
364
0
0
375
335
365
0
0
374
335
365
0
0
374
335
366
0
0
374
335
366
0
0
373
335
366
0
0
373
335
367
0
0
372
335
367
0
0
372
335
368
0
0
371
334
368
0
0
370
334
369
0
0
369
334
368
0
0
369
334
368
0
0
368
333
368
0
0
366
333
368
0
0
365
332
368
0
0
365
332
368
0
0
365
332
369
0
0
364
332
369
0
0
364
332
370
0
0
363
332
370
0
0
363
332
371
0
0
363
332
371
0
0
363
332
372
0
0
361
332
373
0
0
361
333
373
0
0
361
332
374
0
0
360
333
375
0
0
360
332
375
0
0
360
333
376
0
0
359
333
377
0
0
358
333
377
0
0
358
333
378
0
0
358
333
378
0
0
357
333
379
0
0
357
333
379
0
0
356
334
380
0
0
356
334
380
0
0
355
334
381
0
0
355
335
381
0
0
354
335
381
0
0
354
334
382
0
0
353
334
383
0
0
353
335
383
0
0
352
335
384
0
0
352
335
385
0
0
351
336
386
0
0
351
336
387
0
0
351
336
387
0
0
350
336
387
0
0
350
336
388
0
0
349
336
389
0
0
349
337
390
0
0
348
337
390
0
0
348
337
391
0
0
348
337
391
0
0
347
337
392
0
0
347
337
393
0
0
346
337
393
0
0
345
338
394
0
0
345
338
395
0
0
345
338
396
0
0
345
338
396
0
0
344
339
397
0
0
344
339
398
0
0
344
339
398
0
0
344
342
413
0
0
344
340
400
0
0
344
340
400
0
0
343
340
401
0
0
343
341
402
0
0
342
341
403
0
0
342
341
404
0
0
342
341
404
0
0
342
341
405
0
0
341
341
405
0
0
341
342
406
0
0
341
342
407
0
0
340
342
408
0
0
340
343
409
0
0
340
343
409
0
0
339
343
411
0
0
339
344
411
0
0
338
343
412
0
0
338
343
413
0
0
338
344
413
0
0
338
344
414
0
396
337
344
414
0
395
336
344
414
0
393
336
343
414
0
392
335
343
415
0
391
334
342
415
0
389
333
342
0
0
388
333
342
0
0
387
332
342
0
0
386
332
342
0
0
385
331
342
0
0
384
331
342
0
0
384
331
342
0
0
384
331
343
0
0
383
330
343
0
0
383
331
344
0
0
383
331
345
0
0
382
331
345
0
0
382
331
346
0
0
381
331
346
0
0
380
331
346
0
0
380
331
347
0
0
379
331
347
0
0
379
330
348
0
0
379
331
349
0
0
378
331
349
0
0
377
331
349
0
0
377
331
350
0
0
377
331
350
0
0
377
331
351
0
0
376
331
351
0
0
376
331
352
0
0
376
331
353
0
0
375
331
353
0
0
375
331
353
0
0
375
331
354
0
0
374
331
354
0
0
374
331
355
0
0
374
331
356
0
0
373
331
356
0
0
373
331
357
0
0
372
331
357
0
0
372
331
358
0
0
372
331
359
0
0
372
331
359
0
0
371
331
359
0
0
371
332
360
0
0
370
331
361
0
0
370
331
361
0
0
369
331
362
0
0
369
331
363
0
0
369
331
363
0
0
369
331
364
0
0
368
331
364
0
0
367
331
365
0
0
368
331
365
0
0
367
331
365
0
0
367
332
366
0
0
366
331
367
0
0
366
332
367
0
0
366
332
367
0
0
365
332
367
0
0
365
332
369
0
0
364
331
369
0
0
364
332
369
0
0
363
332
370
0
0
363
333
371
0
0
363
333
371
0
0
362
332
372
0
0
362
332
372
0
0
361
332
373
0
0
360
331
373
0
0
360
331
374
0
0
359
330
374
0
0
359
330
374
0
0
358
330
375
0
0
357
331
376
0
0
357
330
376
0
0
356
331
377
0
0
356
330
377
0
0
356
330
378
0
0
356
331
379
0
0
355
331
379
0
0
354
331
379
0
0
353
331
380
0
0
353
331
381
0
0
352
331
381
0
0
352
332
381
0
0
352
332
382
0
0
351
333
383
0
0
351
332
384
0
0
349
333
385
0
0
350
333
385
0
0
349
333
386
0
0
350
334
388
0
0
348
333
387
0
0
349
334
388
0
0
348
334
389
0
0
347
334
390
0
0
347
335
391
0
0
346
335
391
0
0
347
335
392
0
0
345
335
392
0
0
344
335
393
0
0
344
335
394
0
0
344
336
395
0
0
344
336
396
0
0
343
336
396
0
0
342
337
397
0
0
343
336
397
0
0
343
337
398
0
0
344
337
400
0
0
343
338
400
0
0
342
337
401
0
0
342
337
401
0
0
342
338
402
0
0
341
338
403
0
0
342
340
404
0
0
340
339
404
0
0
341
339
406
0
0
340
339
406
0
0
340
340
407
0
0
340
340
408
0
0
340
341
410
0
0
339
342
411
0
0
338
341
411
0
404
338
341
411
0
403
337
342
412
0
402
338
342
413
0
402
337
341
414
0
401
337
342
414
0
400
336
342
415
0
399
336
342
0
0
397
336
343
0
0
397
337
344
0
0
396
336
344
0
0
396
335
344
0
0
395
337
345
419
0
395
337
345
420
0
393
336
345
0
0
393
335
345
0
0
392
335
346
0
0
391
335
346
0
0
391
335
346
0
0
391
335
347
0
0
391
335
347
0
0
390
335
348
0
0
389
336
349
0
0
389
335
349
0
0
388
335
349
0
0
388
335
349
0
0
387
336
351
0
0
386
334
350
0
0
386
335
351
0
0
386
334
351
0
0
385
334
351
0
0
384
335
352
0
0
384
334
352
0
0
384
334
353
0
0
384
334
353
0
0
383
334
354
0
0
383
334
354
0
0
382
335
355
0
0
382
336
356
0
0
382
334
357
0
0
381
336
357
0
0
380
337
359
0
0
380
337
359
0
0
380
337
360
0
0
379
337
360
0
0
379
337
361
0
0
378
337
361
0
0
378
337
361
0
0
378
335
361
0
0
378
336
362
0
0
378
335
362
0
0
377
336
363
0
0
376
335
363
0
0
376
335
363
0
0
375
335
363
0
0
375
334
363
0
0
374
335
364
0
0
374
335
365
0
0
374
335
366
0
0
373
335
366
0
0
373
335
367
0
0
372
335
367
0
0
372
335
367
0
0
372
335
368
0
0
371
335
369
0
0
371
335
369
0
0
370
336
370
0
0
370
334
370
0
0
369
334
370
0
0
369
334
370
0
0
369
334
371
0
0
368
334
371
0
0
368
334
372
0
0
367
335
372
0
0
366
334
372
0
0
366
334
372
0
0
366
335
372
0
0
365
334
374
0
0
365
334
374
0
0
364
335
375
0
0
364
334
375
0
0
364
335
376
0
0
363
335
377
0
0
363
335
377
0
0
363
335
378
0
0
362
335
378
0
0
362
335
379
0
0
361
335
379
0
0
361
335
380
0
0
360
335
380
0
0
359
336
381
0
0
359
336
381
0
0
359
336
382
0
0
358
336
382
0
0
358
336
383
0
0
357
336
383
0
0
357
336
384
0
0
356
336
384
0
0
356
337
385
0
0
355
337
385
0
0
355
337
386
0
0
355
338
387
0
0
354
337
387
0
0
354
337
388
0
0
353
337
388
0
0
352
338
389
0
0
352
338
389
0
0
352
338
390
0
0
351
338
391
0
0
351
338
392
0
0
351
339
392
0
0
350
339
393
0
0
349
339
393
0
0
349
339
394
0
0
348
339
395
0
0
348
339
395
0
0
347
339
395
0
0
347
340
396
0
0
347
340
397
0
0
347
340
397
0
0
346
340
398
0
0
346
340
399
0
0
345
341
399
0
0
345
341
400
0
0
345
341
401
0
0
345
341
401
0
0
345
341
402
0
0
344
341
402
0
0
344
341
403
0
0
344
342
404
0
0
344
342
404
0
0
343
342
405
0
0
343
342
406
0
0
343
343
406
0
0
342
343
407
0
0
341
343
408
0
0
341
343
408
0
0
341
344
409
0
0
340
344
410
0
0
340
344
411
0
0
340
344
411
0
0
340
344
413
0
0
340
345
413
0
0
339
345
414
0
0
339
345
415
0
0
339
345
416
0
0
339
345
416
0
397
338
345
417
0
396
338
346
418
0
396
338
346
418
0
395
338
346
0
0
394
338
346
0
0
394
338
347
0
0
393
338
347
0
0
392
338
348
0
0
392
337
348
0
0
391
338
349
0
0
391
338
349
0
0
391
337
349
0
0
390
337
350
0
0
390
337
350
0
0
389
337
350
0
0
389
337
351
0
0
388
337
351
0
0
387
337
351
0
0
386
336
352
0
0
385
336
352
0
0
386
336
352
0
0
385
336
352
0
0
384
336
353
0
0
384
336
353
0
0
383
336
354
0
0
383
336
354
0
0
382
335
355
0
0
382
335
355
0
0
381
336
356
0
0
381
336
356
0
0
381
336
357
0
0
380
336
357
0
0
380
336
358
0
0
380
335
358
0
0
380
335
358
0
0
379
335
359
0
0
379
335
359
0
0
378
335
360
0
0
377
335
360
0
0
377
335
361
0
0
377
335
361
0
0
376
336
362
0
0
376
335
362
0
0
376
335
363
0
0
375
335
364
0
0
375
335
364
0
0
374
335
364
0
0
374
335
365
0
0
374
335
366
0
0
373
335
366
0
0
373
335
366
0
0
372
335
367
0
0
372
335
368
0
0
371
335
368
0
0
371
335
369
0
0
371
335
369
0
0
370
335
369
0
0
370
335
370
0
0
370
335
370
0
0
369
335
371
0
0
369
335
371
0
0
368
335
372
0
0
368
335
372
0
0
367
335
372
0
0
367
336
373
0
0
367
335
373
0
0
366
335
374
0
0
366
335
374
0
0
365
335
375
0
0
365
335
376
0
0
364
335
376
0
0
364
335
377
0
0
363
335
377
0
0
363
335
378
0
0
362
336
378
0
0
362
335
379
0
0
361
335
379
0
0
361
335
380
0
0
360
336
380
0
0
360
336
381
0
0
359
336
381
0
0
359
336
382
0
0
358
336
382
0
0
358
336
383
0
0
358
336
383
0
0
357
337
383
0
0
356
336
383
0
0
355
336
383
0
0
354
336
384
0
0
354
336
385
0
0
354
336
386
0
0
353
337
386
0
0
352
337
387
0
0
352
337
388
0
0
352
337
388
0
0
351
337
389
0
0
351
337
390
0
0
350
338
390
0
0
350
338
391
0
0
349
338
392
0
0
349
338
392
0
0
348
338
393
0
0
348
338
393
0
0
347
339
394
0
0
347
339
394
0
0
347
339
395
0
0
347
339
396
0
0
346
339
396
0
0
345
340
397
0
0
345
340
398
0
0
345
340
399
0
0
345
340
399
0
0
345
340
399
0
0
345
341
400
0
0
345
341
401
0
0
344
341
401
0
0
344
341
402
0
0
343
341
402
0
0
342
341
403
0
0
342
341
403
0
0
341
340
403
0
0
340
339
403
0
0
339
339
404
0
0
339
340
404
0
0
338
340
405
0
0
338
340
406
0
0
338
340
407
0
0
337
341
408
0
0
337
341
409
0
0
337
341
409
0
0
337
341
410
0
0
336
342
411
0
0
337
342
411
0
0
336
342
412
0
395
336
342
413
0
395
336
343
414
0
394
336
343
414
0
393
336
343
415
0
392
335
344
416
0
392
336
344
0
0
391
336
344
0
0
391
335
345
0
0
390
335
345
0
0
389
335
345
0
0
389
335
346
0
0
389
335
346
0
0
388
335
347
0
0
388
335
347
0
0
387
335
347
0
0
387
335
348
0
0
386
335
348
0
0
386
335
349
0
0
385
335
349
0
0
385
334
349
0
0
384
335
350
0
0
383
334
350
0
0
383
335
351
0
0
383
334
351
0
0
382
334
351
0
0
382
334
352
0
0
381
334
352
0
0
381
334
353
0
0
380
334
353
0
0
380
334
353
0
0
379
334
354
0
0
379
334
355
0
0
379
334
355
0
0
379
334
355
0
0
379
334
356
0
0
378
334
356
0
0
378
334
357
0
0
377
334
357
0
0
377
334
358
0
0
376
334
358
0
0
376
334
359
0
0
376
334
359
0
0
375
333
360
0
0
375
333
360
0
0
374
334
361
0
0
374
333
361
0
0
374
334
362
0
0
373
333
362
0
0
373
333
363
0
0
372
333
363
0
0
372
334
364
0
0
372
333
364
0
0
371
333
364
0
0
371
333
365
0
0
370
333
366
0
0
370
334
366
0
0
370
333
367
0
0
369
333
367
0
0
368
333
368
0
0
369
333
368
0
0
368
333
368
0
0
367
333
368
0
0
367
333
369
0
0
366
333
369
0
0
365
333
370
0
0
365
333
370
0
0
365
333
370
0
0
364
333
371
0
0
364
333
371
0
0
363
333
372
0
0
363
333
373
0
0
363
333
373
0
0
362
333
374
0
0
361
333
374
0
0
361
333
375
0
0
361
334
376
0
0
360
333
376
0
0
359
333
377
0
0
359
333
377
0
0
359
333
378
0
0
358
333
378
0
0
358
334
379
0
0
357
334
380
0
0
357
334
380
0
0
356
334
381
0
0
356
334
381
0
0
355
335
382
0
0
355
335
382
0
0
354
335
382
0
0
354
335
384
0
0
353
335
384
0
0
353
336
385
0
0
353
336
386
0
0
352
336
386
0
0
351
336
386
0
0
351
336
387
0
0
351
337
388
0
0
350
337
389
0
0
349
337
390
0
0
349
337
390
0
0
349
337
391
0
0
348
338
392
0
0
347
338
392
0
0
347
337
392
0
0
346
338
393
0
0
346
338
394
0
0
346
338
395
0
0
345
338
395
0
0
345
338
396
0
0
345
339
397
0
0
344
339
397
0
0
344
339
398
0
0
344
340
399
0
0
344
340
400
0
0
344
340
401
0
0
344
340
401
0
0
343
341
402
0
0
343
341
403
0
0
343
341
404
0
0
342
341
404
0
0
342
342
405
0
0
341
342
406
0
0
341
342
407
0
0
341
343
408
0
0
341
343
409
0
0
340
343
410
0
0
340
344
411
0
0
340
344
412
0
0
340
344
412
0
0
339
345
413
0
0
339
345
414
0
0
339
345
415
0
0
339
345
416
0
398
338
345
416
0
396
338
346
417
0
396
338
346
418
0
395
338
347
0
0
394
338
347
0
0
393
338
347
0
0
393
338
347
0
0
392
338
348
0
0
392
338
348
0
0
391
337
349
0
0
391
338
349
0
0
390
337
349
0
0
390
337
350
0
0
389
337
350
0
0
389
337
351
0
0
388
337
351
0
0
387
336
351
0
0
386
337
352
0
0
386
336
352
0
0
385
336
352
0
0
384
336
353
0
0
384
336
353
0
0
384
336
354
0
0
383
336
355
0
0
383
336
355
0
0
382
336
355
0
0
381
336
356
0
0
381
335
356
0
0
381
335
357
0
0
380
335
357
0
0
379
335
357
0
0
378
335
357
0
0
378
335
358
0
0
378
334
358
0
0
377
334
358
0
0
376
334
358
0
0
375
333
358
0
0
374
332
358
0
0
374
333
359
0
0
373
333
360
0
0
374
333
361
0
0
373
333
361
0
0
373
333
362
0
0
373
333
362
0
0
372
333
363
0
0
372
333
363
0
0
371
333
364
0
0
371
333
364
0
0
370
333
365
0
0
370
333
366
0
0
370
333
366
0
0
369
333
366
0
0
369
333
367
0
0
368
333
367
0
0
368
333
368
0
0
367
333
368
0
0
367
333
369
0
0
366
333
369
0
0
366
333
369
0
0
366
333
370
0
0
365
333
370
0
0
365
333
371
0
0
364
333
371
0
0
364
333
372
0
0
363
333
372
0
0
363
333
373
0
0
362
333
373
0
0
361
333
374
0
0
361
333
375
0
0
361
333
375
0
0
360
333
376
0
0
360
333
377
0
0
360
333
377
0
0
359
333
378
0
0
358
333
378
0
0
358
334
379
0
0
358
334
379
0
0
357
334
380
0
0
356
334
380
0
0
356
334
381
0
0
355
335
381
0
0
355
335
381
0
0
355
335
382
0
0
354
335
383
0
0
353
335
384
0
0
353
335
384
0
0
352
336
385
0
0
353
335
385
0
0
352
336
387
0
0
351
336
387
0
0
351
336
387
0
0
351
337
388
0
0
350
336
389
0
0
350
337
390
0
0
349
337
391
0
0
349
337
391
0
0
348
338
392
0
0
348
337
392
0
0
347
338
392
0
0
347
338
394
0
0
347
338
394
0
0
346
338
396
0
0
346
339
396
0
0
345
339
397
0
0
345
339
397
0
0
345
340
398
0
0
345
339
399
0
0
345
340
399
0
0
344
340
400
0
0
344
340
401
0
0
344
341
401
0
0
344
341
402
0
0
343
341
403
0
0
343
342
404
0
0
343
342
405
0
0
343
342
405
0
0
342
342
406
0
0
342
342
406
0
0
342
343
407
0
0
341
343
408
0
0
342
343
409
0
0
341
344
410
0
0
340
343
411
0
0
340
344
412
0
0
340
345
412
0
0
340
344
413
0
0
340
345
414
0
0
339
345
414
0
0
339
345
415
0
0
339
345
416
0
397
338
345
416
0
396
338
346
417
0
395
338
346
418
0
395
338
346
419
0
394
337
346
0
0
394
337
346
0
0
393
337
346
0
0
393
337
347
0
0
392
336
347
0
0
392
336
347
0
0
391
336
348
0
0
391
336
348
0
0
390
336
348
0
0
389
336
348
0
0
389
335
349
0
0
388
335
349
0
0
388
336
350
0
0
387
336
351
0
0
387
335
351
0
0
386
335
351
0
0
385
335
351
0
0
385
334
351
0
0
384
334
351
0
0
383
333
351
0
0
382
333
351
0
0
381
333
351
0
0
380
332
351
0
0
379
332
351
0
0
378
332
351
0
0
377
331
351
0
0
376
331
352
0
0
376
331
352
0
0
376
331
353
0
0
375
331
354
0
0
376
331
354
0
0
375
331
355
0
0
374
331
355
0
0
374
331
356
0
0
374
331
356
0
0
373
331
357
0
0
373
331
357
0
0
373
331
358
0
0
372
331
358
0
0
372
331
359
0
0
372
331
360
0
0
371
331
360
0
0
371
331
361
0
0
370
331
361
0
0
370
331
361
0
0
370
331
362
0
0
369
331
363
0
0
369
331
363
0
0
369
331
364
0
0
368
332
364
0
0
368
331
364
0
0
367
331
366
0
0
367
331
366
0
0
367
332
366
0
0
367
332
367
0
0
366
332
367
0
0
366
332
368
0
0
365
332
368
0
0
365
332
368
0
0
364
332
369
0
0
364
333
369
0
0
364
332
370
0
0
363
332
370
0
0
363
332
371
0
0
362
332
372
0
0
362
332
372
0
0
361
332
373
0
0
361
332
374
0
0
360
333
374
0
0
360
332
375
0
0
359
332
376
0
0
359
332
376
0
0
358
333
376
0
0
358
333
377
0
0
358
333
378
0
0
357
333
378
0
0
357
333
379
0
0
356
333
379
0
0
356
334
380
0
0
356
334
381
0
0
355
334
381
0
0
354
335
382
0
0
354
334
382
0
0
353
335
383
0
0
353
335
383
0
0
352
335
384
0
0
352
335
385
0
0
351
335
386
0
0
351
336
386
0
0
350
336
387
0
0
350
336
387
0
0
349
336
388
0
0
349
336
388
0
0
348
336
389
0
0
348
337
390
0
0
347
337
390
0
0
347
337
391
0
0
347
337
392
0
0
346
337
393
0
0
346
337
393
0
0
346
338
394
0
0
345
338
395
0
0
345
338
395
0
0
344
338
396
0
0
344
339
397
0
0
344
339
397
0
0
344
339
398
0
0
344
339
399
0
0
343
340
399
0
0
343
340
400
0
0
342
340
401
0
0
342
340
402
0
0
342
340
402
0
0
341
340
402
0
0
341
340
403
0
0
340
340
404
0
0
340
341
405
0
0
340
341
406
0
0
339
341
407
0
0
339
341
407
0
0
339
342
408
0
0
338
342
409
0
0
338
342
410
0
0
338
342
411
0
0
338
343
412
0
0
338
343
413
0
0
338
343
413
0
0
338
344
414
0
0
338
344
415
0
395
337
344
416
0
395
337
345
416
0
394
337
345
0
0
393
337
345
0
0
393
337
346
0
0
392
337
346
0
0
391
337
346
0
0
391
336
347
0
0
391
337
347
0
0
390
336
348
0
0
390
336
348
0
0
389
336
349
0
0
389
336
349
0
0
388
336
350
0
0
388
336
350
0
0
387
336
350
0
0
386
336
351
0
0
386
336
351
0
0
385
336
352
0
0
384
336
352
0
0
384
336
352
0
0
383
336
353
0
0
383
336
353
0
0
383
336
354
0
0
382
335
354
0
0
382
335
354
0
0
381
336
355
0
0
381
335
355
0
0
380
335
356
0
0
380
335
356
0
0
380
335
357
0
0
379
335
357
0
0
379
335
358
0
0
379
334
358
0
0
378
335
359
0
0
378
335
359
0
0
377
335
360
0
0
377
334
360
0
0
376
335
360
0
0
376
334
361
0
0
376
335
361
0
0
375
335
362
0
0
375
334
362
0
0
375
335
363
0
0
374
334
364
0
0
374
334
364
0
0
373
335
364
0
0
373
334
365
0
0
372
334
365
0
0
372
334
366
0
0
371
334
366
0
0
371
334
366
0
0
371
335
367
0
0
370
334
368
0
0
370
334
368
0
0
369
334
368
0
0
369
334
369
0
0
368
334
369
0
0
368
334
370
0
0
367
333
370
0
0
367
333
370
0
0
366
334
370
0
0
366
334
371
0
0
366
334
371
0
0
365
334
372
0
0
365
334
372
0
0
364
334
373
0
0
364
334
374
0
0
364
334
374
0
0
363
334
375
0
0
363
334
375
0
0
362
334
376
0
0
361
334
377
0
0
362
334
377
0
0
361
334
378
0
0
360
334
378
0
0
360
334
379
0
0
359
334
379
0
0
359
334
380
0
0
359
335
380
0
0
358
335
381
0
0
358
335
381
0
0
357
335
382
0
0
357
335
382
0
0
356
335
382
0
0
355
335
383
0
0
355
336
383
0
0
354
336
384
0
0
354
336
385
0
0
354
336
385
0
0
353
336
386
0
0
353
336
386
0
0
352
337
387
0
0
352
336
388
0
0
351
337
388
0
0
350
337
389
0
0
350
337
389
0
0
350
337
390
0
0
350
337
391
0
0
349
338
392
0
0
348
338
392
0
0
348
339
393
0
0
348
338
393
0
0
347
339
394
0
0
347
339
395
0
0
347
340
396
0
0
346
340
396
0
0
346
340
397
0
0
346
340
398
0
0
346
340
398
0
0
345
340
399
0
0
345
341
399
0
0
345
341
400
0
0
345
341
401
0
0
345
341
402
0
0
345
341
402
0
0
344
342
403
0
0
344
342
403
0
0
344
342
405
0
0
343
342
404
0
0
343
342
406
0
0
343
343
406
0
0
342
343
407
0
0
342
343
408
0
0
342
343
408
0
0
341
344
410
0
0
341
344
410
0
0
341
344
411
0
0
341
344
412
0
0
341
345
412
0
0
340
345
413
0
0
340
345
414
0
0
340
345
415
0
0
339
346
415
0
0
340
346
416
0
398
339
346
417
0
397
339
346
417
0
396
338
346
418
0
395
338
346
418
0
395
338
346
0
0
394
338
347
0
0
393
338
347
0
0
393
338
348
0
0
392
338
348
0
0
392
338
348
0
0
391
337
348
0
0
391
338
349
0
0
390
337
349
0
0
390
337
349
0
0
390
337
350
0
0
389
337
350
0
0
388
337
351
0
0
388
336
351
0
0
387
336
351
0
0
386
336
351
0
0
386
336
352
0
0
385
336
352
0
0
385
336
353
0
0
384
336
353
0
0
384
336
353
0
0
383
336
354
0
0
383
336
354
0
0
382
336
355
0
0
382
336
355
0
0
382
336
355
0
0
381
335
356
0
0
381
336
356
0
0
380
335
357
0
0
380
335
357
0
0
379
335
358
0
0
379
335
358
0
0
378
335
358
0
0
378
335
359
0
0
378
335
359
0
0
377
335
360
0
0
377
335
360
0
0
377
335
361
0
0
376
335
361
0
0
376
335
362
0
0
376
335
362
0
0
375
335
363
0
0
375
335
363
0
0
375
335
364
0
0
374
335
364
0
0
374
335
365
0
0
373
335
365
0
0
373
335
366
0
0
373
335
366
0
0
372
334
367
0
0
372
335
367
0
0
371
335
368
0
0
371
335
368
0
0
371
335
368
0
0
370
335
369
0
0
369
334
369
0
0
369
334
370
0
0
369
334
370
0
0
368
335
370
0
0
368
334
371
0
0
367
335
371
0
0
367
334
372
0
0
367
334
372
0
0
366
335
372
0
0
366
335
373
0
0
365
335
374
0
0
365
335
374
0
0
365
334
375
0
0
364
335
375
0
0
363
335
376
0
0
363
335
376
0
0
363
335
377
0
0
362
335
378
0
0
362
335
378
0
0
361
335
379
0
0
361
335
379
0
0
361
335
380
0
0
360
335
380
0
0
359
335
381
0
0
359
335
381
0
0
358
336
382
0
0
358
336
382
0
0
357
336
383
0
0
357
336
383
0
0
356
336
383
0
0
355
336
383
0
0
355
335
384
0
0
354
336
384
0
0
353
336
385
0
0
353
336
386
0
0
352
336
386
0
0
351
336
386
0
0
350
336
386
0
0
349
335
387
0
0
349
335
387
0
0
348
335
387
0
0
347
335
387
0
0
346
335
388
0
0
346
335
389
0
0
346
335
389
0
0
345
335
390
0
0
344
336
391
0
0
344
336
392
0
0
344
336
392
0
0
343
336
392
0
0
343
336
393
0
0
343
336
394
0
0
342
337
394
0
0
342
337
395
0
0
342
337
396
0
0
342
338
397
0
0
342
338
398
0
0
342
338
398
0
0
342
338
399
0
0
342
339
400
0
0
341
339
400
0
0
341
339
401
0
0
340
339
401
0
0
340
339
403
0
0
340
339
403
0
0
339
340
404
0
0
339
340
404
0
0
339
340
405
0
0
339
340
406
0
0
338
341
407
0
0
338
341
407
0
0
337
341
408
0
0
338
342
409
0
0
337
342
410
0
0
337
342
411
0
0
337
342
412
0
0
336
343
412
0
0
336
343
413
0
0
337
343
414
0
395
336
344
415
0
394
337
344
416
0
393
336
344
416
0
393
336
344
0
0
392
336
344
0
0
392
336
345
0
0
391
336
345
0
0
391
336
346
0
0
390
336
346
0
0
390
336
346
0
0
389
336
346
0
0
389
335
347
0
0
388
336
348
0
0
388
335
348
0
0
387
335
348
0
0
387
335
348
0
0
386
335
349
0
0
386
335
349
0
0
385
335
350
0
0
384
335
350
0
0
384
335
351
0
0
383
335
351
0
0
383
334
351
0
0
383
335
353
0
0
382
335
352
0
0
382
335
353
0
0
382
334
353
0
0
381
335
354
0
0
381
335
354
0
0
380
335
354
0
0
380
335
355
0
0
379
334
355
0
0
379
335
356
0
0
379
335
356
0
0
379
334
357
0
0
378
334
357
0
0
378
334
358
0
0
377
334
358
0
0
377
334
359
0
0
377
334
359
0
0
376
334
360
0
0
376
334
360
0
0
376
334
360
0
0
375
334
361
0
0
375
334
361
0
0
374
334
362
0
0
374
333
362
0
0
373
333
362
0
0
373
334
363
0
0
373
333
363
0
0
372
334
364
0
0
372
334
364
0
0
372
333
365
0
0
371
334
366
0
0
371
334
366
0
0
370
334
366
0
0
370
334
367
0
0
370
333
367
0
0
369
334
368
0
0
369
334
368
0
0
369
334
368
0
0
368
334
369
0
0
368
334
369
0
0
368
334
369
0
0
367
334
370
0
0
367
334
370
0
0
366
334
371
0
0
366
334
371
0
0
366
334
371
0
0
365
334
372
0
0
365
334
372
0
0
364
335
373
0
0
364
334
374
0
0
364
334
374
0
0
363
334
375
0
0
363
334
375
0
0
362
334
376
0
0
362
334
376
0
0
361
334
377
0
0
361
334
378
0
0
360
334
378
0
0
360
334
378
0
0
359
334
379
0
0
359
335
379
0
0
358
334
380
0
0
358
334
380
0
0
358
335
381
0
0
357
335
381
0
0
357
335
382
0
0
357
336
382
0
0
356
336
383
0
0
356
336
383
0
0
355
336
384
0
0
355
336
384
0
0
354
336
385
0
0
354
336
386
0
0
354
337
386
0
0
353
337
387
0
0
353
337
387
0
0
352
337
388
0
0
352
337
389
0
0
351
338
389
0
0
351
338
390
0
0
350
338
390
0
0
350
338
391
0
0
349
338
391
0
0
349
338
392
0
0
349
338
393
0
0
348
339
394
0
0
348
339
394
0
0
348
339
395
0
0
347
339
395
0
0
346
340
396
0
0
346
339
396
0
0
346
339
397
0
0
345
340
397
0
0
345
340
398
0
0
345
340
399
0
0
345
340
399
0
0
345
341
400
0
0
345
341
401
0
0
344
341
401
0
0
344
341
402
0
0
344
341
403
0
0
343
341
404
0
0
343
341
404
0
0
343
342
404
0
0
342
342
405
0
0
341
342
406
0
0
342
342
407
0
0
341
342
407
0
0
341
343
408
0
0
341
343
409
0
0
340
343
410
0
0
340
343
411
0
0
339
343
411
0
0
339
344
412
0
0
340
344
412
0
0
339
344
413
0
0
339
344
414
0
0
339
345
415
0
0
339
345
416
0
397
339
345
416
0
396
338
345
416
0
395
338
345
417
0
395
337
346
418
0
394
337
345
0
0
393
337
346
0
0
393
337
347
0
0
392
337
346
0
0
392
337
347
0
0
391
337
348
0
0
391
337
348
0
0
390
337
348
0
0
390
337
348
0
0
390
337
349
0
0
389
337
349
0
0
388
336
350
0
0
388
336
350
0
0
388
336
350
0
0
387
336
351
0
0
386
336
351
0
0
385
336
351
0
0
385
336
352
0
0
385
336
352
0
0
384
336
352
0
0
384
335
353
0
0
383
336
353
0
0
383
336
354
0
0
382
336
354
0
0
382
336
355
0
0
382
336
355
0
0
381
335
355
0
0
381
335
356
0
0
380
335
356
0
0
380
335
356
0
0
379
335
357
0
0
379
335
358
0
0
379
335
358
0
0
378
335
358
0
0
378
335
359
0
0
378
335
359
0
0
377
335
360
0
0
377
335
361
0
0
376
335
361
0
0
376
335
361
0
0
376
334
362
0
0
376
334
363
0
0
375
334
363
0
0
375
335
363
0
0
374
335
364
0
0
374
334
364
0
0
374
334
365
0
0
373
334
365
0
0
373
334
366
0
0
372
334
366
0
0
372
334
367
0
0
371
334
367
0
0
371
334
367
0
0
371
334
368
0
0
370
334
368
0
0
369
333
368
0
0
369
333
369
0
0
368
333
369
0
0
368
333
369
0
0
367
333
369
0
0
367
333
370
0
0
366
333
370
0
0
366
333
371
0
0
366
333
371
0
0
366
333
372
0
0
365
333
373
0
0
364
334
374
0
0
364
333
374
0
0
364
334
375
0
0
364
334
375
0
0
363
335
376
0
0
363
335
377
0
0
363
334
377
0
0
362
335
378
0
0
362
335
378
0
0
361
335
379
0
0
360
335
380
0
0
360
335
380
0
0
360
335
380
0
0
359
335
381
0
0
359
336
382
0
0
358
336
382
0
0
358
336
383
0
0
357
336
383
0
0
357
336
383
0
0
356
336
384
0
0
355
337
385
0
0
355
336
385
0
0
355
337
385
0
0
354
337
386
0
0
354
337
387
0
0
353
337
387
0
0
353
337
388
0
0
352
337
389
0
0
352
338
390
0
0
352
338
390
0
0
351
338
391
0
0
351
338
392
0
0
350
338
392
0
0
350
339
393
0
0
349
339
394
0
0
349
339
394
0
0
348
339
394
0
0
348
339
395
0
0
348
339
396
0
0
347
340
396
0
0
347
340
397
0
0
346
340
398
0
0
346
340
398
0
0
346
341
399
0
0
345
341
399
0
0
345
341
400
0
0
345
341
400
0
0
345
341
401
0
0
345
341
402
0
0
344
341
403
0
0
344
342
403
0
0
344
341
404
0
0
344
342
405
0
0
343
342
405
0
0
342
342
406
0
0
342
343
407
0
0
342
343
407
0
0
342
343
408
0
0
341
343
409
0
0
341
343
409
0
0
340
343
410
0
0
340
344
411
0
0
340
344
411
0
0
340
344
412
0
0
339
344
413
0
0
339
344
414
0
0
339
345
415
0
0
339
345
415
0
0
339
345
416
0
398
338
346
417
0
397
338
345
417
0
396
338
346
418
0
395
338
346
418
0
394
337
346
0
0
394
338
347
0
0
393
338
347
0
0
393
338
347
0
0
392
338
348
0
0
392
338
348
0
0
391
337
348
0
0
391
337
348
0
0
390
337
349
0
0
390
337
349
0
0
389
337
350
0
0
389
337
350
0
0
389
337
351
0
0
388
337
351
0
0
387
337
351
0
0
387
336
352
0
0
386
336
352
0
0
385
336
352
0
0
385
336
353
0
0
384
336
353
0
0
384
337
353
0
0
384
336
354
0
0
384
336
354
0
0
383
336
354
0
0
383
336
355
0
0
382
336
355
0
0
382
336
356
0
0
381
336
356
0
0
381
336
356
0
0
381
336
356
0
0
380
335
357
0
0
380
335
358
0
0
379
335
358
0
0
379
335
358
0
0
379
335
359
0
0
378
335
359
0
0
378
335
360
0
0
378
335
360
0
0
377
335
361
0
0
377
335
361
0
0
377
335
362
0
0
376
335
362
0
0
376
335
362
0
0
375
335
363
0
0
375
335
363
0
0
375
335
364
0
0
375
335
364
0
0
374
335
365
0
0
374
335
365
0
0
373
335
366
0
0
373
335
366
0
0
372
335
366
0
0
372
334
366
0
0
371
334
366
0
0
370
333
366
0
0
369
333
366
0
0
368
332
366
0
0
367
331
366
0
0
367
332
367
0
0
366
332
367
0
0
366
332
367
0
0
366
332
368
0
0
365
333
368
0
0
365
332
369
0
0
365
332
369
0
0
364
332
369
0
0
364
332
370
0
0
363
332
370
0
0
363
332
371
0
0
363
332
371
0
0
362
332
371
0
0
362
332
372
0
0
361
332
372
0
0
361
332
373
0
0
360
332
374
0
0
360
332
375
0
0
360
332
375
0
0
359
332
376
0
0
359
333
376
0
0
358
332
377
0
0
358
333
377
0
0
358
333
378
0
0
357
333
378
0
0
357
333
379
0
0
356
333
379
0
0
356
333
380
0
0
356
334
380
0
0
355
334
381
0
0
355
334
381
0
0
355
334
382
0
0
354
335
382
0
0
353
335
382
0
0
353
335
384
0
0
353
335
384
0
0
352
335
385
0
0
352
336
385
0
0
351
335
386
0
0
351
336
387
0
0
351
336
387
0
0
351
336
388
0
0
350
336
388
0
0
349
337
389
0
0
349
337
390
0
0
348
337
390
0
0
348
337
391
0
0
348
337
392
0
0
347
337
392
0
0
346
337
393
0
0
346
337
393
0
0
346
338
394
0
0
345
338
394
0
0
345
338
395
0
0
345
338
395
0
0
344
338
396
0
0
344
339
397
0
0
344
339
398
0
0
344
339
398
0
0
344
339
399
0
0
343
339
399
0
0
343
339
400
0
0
343
340
401
0
0
343
340
401
0
0
342
340
402
0
0
342
340
402
0
0
342
341
404
0
0
342
341
404
0
0
342
341
405
0
0
341
342
406
0
0
341
342
407
0
0
341
342
407
0
0
341
342
408
0
0
340
342
409
0
0
339
343
410
0
0
339
343
410
0
0
339
343
411
0
0
339
343
412
0
0
339
344
412
0
0
338
344
413
0
0
339
344
414
0
0
338
344
415
0
0
338
345
415
0
396
338
345
416
0
396
337
345
417
0
395
337
345
417
0
394
337
345
0
0
394
337
346
0
0
393
337
346
0
0
393
337
346
0
0
392
337
346
0
0
391
337
347
0
0
391
336
347
0
0
390
336
348
0
0
390
336
348
0
0
389
336
348
0
0
389
336
348
0
0
388
336
349
0
0
388
336
349
0
0
388
336
350
0
0
387
336
350
0
0
386
336
351
0
0
386
336
351
0
0
385
336
351
0
0
385
335
352
0
0
384
335
352
0
0
384
335
352
0
0
383
335
353
0
0
383
335
353
0
0
383
335
354
0
0
382
335
354
0
0
382
335
354
0
0
382
335
354
0
0
381
335
355
0
0
380
335
356
0
0
380
335
356
0
0
380
335
356
0
0
380
335
357
0
0
379
335
357
0
0
379
335
357
0
0
378
335
358
0
0
377
335
358
0
0
378
334
359
0
0
377
334
359
0
0
377
335
360
0
0
376
334
360
0
0
376
334
361
0
0
376
334
361
0
0
375
334
362
0
0
375
334
362
0
0
374
334
362
0
0
374
334
363
0
0
374
334
363
0
0
373
334
365
0
0
373
334
364
0
0
373
334
365
0
0
372
334
365
0
0
372
334
366
0
0
372
334
366
0
0
371
334
367
0
0
371
334
367
0
0
370
334
368
0
0
370
334
368
0
0
370
334
369
0
0
369
334
369
0
0
369
334
369
0
0
368
334
370
0
0
368
334
370
0
0
367
334
370
0
0
367
334
370
0
0
366
333
371
0
0
366
334
371
0
0
365
334
372
0
0
366
334
372
0
0
365
334
372
0
0
365
334
373
0
0
364
334
373
0
0
364
334
374
0
0
363
334
374
0
0
363
334
375
0
0
363
334
375
0
0
362
334
376
0
0
362
334
377
0
0
361
334
377
0
0
361
335
378
0
0
360
335
378
0
0
360
335
379
0
0
360
335
379
0
0
359
335
380
0
0
359
335
380
0
0
359
335
381
0
0
358
335
381
0
0
357
335
382
0
0
357
335
382
0
0
356
336
382
0
0
356
336
383
0
0
355
336
383
0
0
355
336
384
0
0
355
336
384
0
0
354
336
385
0
0
354
336
386
0
0
353
336
386
0
0
353
337
387
0
0
353
337
387
0
0
353
337
388
0
0
352
337
388
0
0
351
337
389
0
0
351
337
389
0
0
350
337
390
0
0
350
337
390
0
0
349
338
391
0
0
349
338
392
0
0
349
338
392
0
0
348
338
392
0
0
348
338
393
0
0
348
338
393
0
0
347
339
394
0
0
347
339
395
0
0
346
339
395
0
0
346
339
396
0
0
345
339
396
0
0
345
339
397
0
0
345
339
397
0
0
345
339
398
0
0
345
339
398
0
0
344
340
399
0
0
344
340
400
0
0
344
340
400
0
0
344
340
401
0
0
343
341
401
0
0
345
341
402
0
0
343
341
402
0
0
342
341
403
0
0
343
341
404
0
0
342
341
404
0
0
342
341
405
0
0
342
341
406
0
0
342
342
406
0
0
341
342
407
0
0
341
342
407
0
0
340
343
408
0
0
340
343
409
0
0
340
343
409
0
0
339
343
410
0
0
340
343
411
0
0
340
344
411
0
0
339
344
412
0
0
339
344
413
0
0
339
344
413
0
0
339
344
414
0
0
338
345
415
0
0
338
345
415
0
0
339
345
416
0
396
338
346
416
0
396
338
346
417
0
395
338
346
418
0
395
338
346
419
0
394
338
346
0
0
393
338
347
0
0
393
337
347
0
0
393
337
347
0
0
392
337
348
0
0
392
337
347
0
0
391
337
348
0
0
391
337
348
0
0
390
337
349
0
0
390
337
349
0
0
389
336
349
0
0
388
336
348
0
0
387
335
348
0
0
386
335
348
0
0
385
335
348
0
0
384
333
348
0
0
383
333
348
0
0
382
332
348
0
0
382
333
349
0
0
382
333
349
0
0
382
333
350
0
0
381
333
350
0
0
381
333
350
0
0
380
333
351
0
0
380
333
351
0
0
380
333
352
0
0
379
333
352
0
0
379
333
352
0
0
379
333
353
0
0
379
333
353
0
0
378
333
354
0
0
378
333
354
0
0
378
333
355
0
0
378
333
355
0
0
377
333
355
0
0
377
333
356
0
0
377
333
356
0
0
376
333
356
0
0
376
333
357
0
0
376
333
358
0
0
376
333
358
0
0
375
333
359
0
0
375
334
359
0
0
374
334
360
0
0
374
333
360
0
0
374
333
360
0
0
373
333
361
0
0
373
333
361
0
0
373
333
362
0
0
373
333
362
0
0
372
333
362
0
0
372
333
363
0
0
372
333
364
0
0
371
333
364
0
0
371
333
364
0
0
371
333
365
0
0
370
333
365
0
0
370
333
366
0
0
370
333
367
0
0
369
333
366
0
0
369
333
367
0
0
368
333
368
0
0
368
333
368
0
0
368
333
368
0
0
367
333
368
0
0
367
333
369
0
0
367
333
369
0
0
366
333
370
0
0
366
333
370
0
0
365
333
370
0
0
365
333
370
0
0
365
333
371
0
0
364
333
371
0
0
364
333
371
0
0
364
333
373
0
0
363
333
372
0
0
363
333
373
0
0
363
333
373
0
0
362
333
374
0
0
361
333
375
0
0
361
333
375
0
0
361
334
376
0
0
360
333
376
0
0
360
333
377
0
0
360
333
377
0
0
359
333
378
0
0
359
334
378
0
0
358
333
378
0
0
358
334
379
0
0
358
334
379
0
0
357
334
380
0
0
357
334
380
0
0
356
334
381
0
0
356
334
381
0
0
356
335
382
0
0
355
335
382
0
0
355
335
382
0
0
355
335
383
0
0
354
335
383
0
0
354
335
384
0
0
354
336
384
0
0
353
336
385
0
0
352
336
386
0
0
352
336
386
0
0
351
336
387
0
0
351
336
387
0
0
351
336
388
0
0
350
337
388
0
0
350
337
389
0
0
350
337
389
0
0
349
337
389
0
0
349
337
391
0
0
348
337
391
0
0
348
338
392
0
0
348
338
392
0
0
347
338
393
0
0
347
338
393
0
0
347
338
394
0
0
346
338
394
0
0
346
339
395
0
0
346
339
396
0
0
346
339
396
0
0
345
339
397
0
0
345
340
397
0
0
345
340
398
0
0
345
340
398
0
0
345
340
399
0
0
345
340
400
0
0
344
341
400
0
0
344
341
401
0
0
344
341
402
0
0
344
341
402
0
0
343
341
403
0
0
344
342
403
0
0
343
342
404
0
0
343
342
405
0
0
343
342
405
0
0
342
342
406
0
0
342
343
407
0
0
342
342
407
0
0
340
342
407
0
0
340
342
407
0
0
339
341
407
0
0
338
341
408
0
0
338
341
408
0
0
338
342
409
0
0
338
342
409
0
0
338
342
410
0
0
337
343
411
0
0
337
343
412
0
0
338
343
413
0
0
337
343
413
0
0
337
343
414
0
0
337
344
415
0
396
337
344
415
0
395
337
344
416
0
394
337
345
416
0
393
336
344
417
0
393
336
345
0
0
392
336
345
0
0
392
336
346
0
0
392
336
345
0
0
391
336
346
0
0
391
336
346
0
0
390
336
347
0
0
390
336
347
0
0
389
336
347
0
0
389
336
347
0
0
388
336
347
0
0
388
335
348
0
0
388
335
348
0
0
387
335
349
0
0
387
335
349
0
0
386
336
349
0
0
386
335
349
0
0
385
335
350
0
0
385
335
350
0
0
384
335
350
0
0
384
335
351
0
0
384
335
351
0
0
383
335
351
0
0
383
334
352
0
0
382
335
352
0
0
382
334
352
0
0
382
335
353
0
0
381
335
353
0
0
381
334
353
0
0
381
335
354
0
0
380
334
354
0
0
380
335
354
0
0
380
334
355
0
0
380
335
355
0
0
379
335
355
0
0
379
334
356
0
0
379
334
357
0
0
378
334
357
0
0
378
334
357
0
0
378
334
358
0
0
378
334
358
0
0
377
334
358
0
0
377
334
359
0
0
376
334
359
0
0
376
334
359
0
0
376
334
359
0
0
375
333
360
0
0
375
334
360
0
0
375
334
360
0
0
375
334
361
0
0
374
334
361
0
0
374
333
362
0
0
374
333
362
0
0
373
334
362
0
0
373
334
363
0
0
373
333
363
0
0
372
333
364
0
0
372
334
364
0
0
372
334
365
0
0
372
334
365
0
0
371
333
365
0
0
371
334
366
0
0
371
334
366
0
0
371
334
366
0
0
370
334
367
0
0
370
334
367
0
0
370
334
368
0
0
369
333
368
0
0
369
334
368
0
0
368
334
368
0
0
368
334
369
0
0
368
333
369
0
0
368
333
370
0
0
367
334
370
0
0
367
334
370
0
0
367
333
370
0
0
366
333
370
0
0
366
334
370
0
0
366
334
371
0
0
365
334
371
0
0
365
334
372
0
0
365
333
372
0
0
365
334
372
0
0
364
334
373
0
0
364
334
374
0
0
364
334
374
0
0
363
334
375
0
0
363
334
375
0
0
363
334
376
0
0
362
334
376
0
0
361
334
376
0
0
361
334
377
0
0
361
334
377
0
0
361
334
378
0
0
360
334
378
0
0
360
335
378
0
0
360
334
379
0
0
359
334
379
0
0
359
334
380
0
0
358
334
380
0
0
358
335
380
0
0
358
335
381
0
0
357
335
381
0
0
357
335
382
0
0
357
335
382
0
0
356
336
382
0
0
356
336
383
0
0
355
336
383
0
0
355
336
383
0
0
355
335
384
0
0
354
336
384
0
0
354
336
384
0
0
354
336
385
0
0
353
336
386
0
0
353
336
386
0
0
352
336
386
0
0
352
337
387
0
0
352
337
387
0
0
352
337
388
0
0
351
337
388
0
0
351
338
389
0
0
351
338
390
0
0
350
338
390
0
0
350
338
390
0
0
350
338
391
0
0
349
338
391
0
0
349
338
392
0
0
348
338
392
0
0
348
338
393
0
0
348
338
393
0
0
348
338
394
0
0
347
339
394
0
0
347
339
395
0
0
347
340
395
0
0
346
339
396
0
0
346
339
396
0
0
346
340
397
0
0
345
340
397
0
0
345
340
397
0
0
345
340
398
0
0
345
340
398
0
0
345
340
399
0
0
345
340
400
0
0
345
341
400
0
0
345
341
401
0
0
344
341
401
0
0
344
341
402
0
0
344
341
402
0
0
344
341
403
0
0
343
341
403
0
0
343
342
404
0
0
343
342
404
0
0
342
342
405
0
0
342
342
405
0
0
342
342
406
0
0
342
342
406
0
0
341
343
407
0
0
341
343
407
0
0
341
342
408
0
0
341
343
408
0
0
340
343
409
0
0
340
343
409
0
0
340
343
410
0
0
340
343
411
0
0
340
343
411
0
0
339
344
412
0
0
339
344
412
0
0
339
344
413
0
0
339
344
414
0
0
339
344
414
0
0
339
344
415
0
0
338
345
415
0
397
338
345
416
0
396
338
345
416
0
396
337
345
416
0
395
338
345
417
0
395
337
345
417
0
394
337
345
0
0
394
337
346
0
0
393
338
346
0
0
393
337
346
0
0
392
337
347
0
0
392
337
347
0
0
391
337
347
0
0
391
337
347
0
0
391
337
348
0
0
390
337
348
0
0
390
337
348
0
0
389
336
348
0
0
389
336
349
0
0
389
337
349
0
0
388
337
350
0
0
388
336
349
0
0
387
335
349
0
0
386
335
349
0
0
386
335
350
0
0
385
335
350
0
0
385
335
350
0
0
384
335
351
0
0
384
335
351
0
0
384
335
351
0
0
383
335
352
0
0
383
335
352
0
0
383
335
352
0
0
383
335
352
0
0
382
335
353
0
0
382
335
353
0
0
381
335
353
0
0
381
334
354
0
0
381
334
354
0
0
380
335
354
0
0
380
335
355
0
0
380
335
355
0
0
380
335
356
0
0
379
335
356
0
0
380
335
356
0
0
379
335
357
0
0
379
335
357
0
0
378
335
358
0
0
379
335
358
0
0
378
334
358
0
0
377
335
359
0
0
378
335
370
0
0
378
335
360
0
0
377
335
360
0
0
377
334
360
0
0
376
335
361
0
0
376
335
361
0
0
376
334
361
0
0
376
334
362
0
0
375
334
362
0
0
375
334
362
0
0
375
334
362
0
0
374
334
363
0
0
374
334
363
0
0
374
334
363
0
0
373
334
364
0
0
373
334
364
0
0
373
334
364
0
0
372
334
365
0
0
372
334
365
0
0
372
334
366
0
0
372
334
366
0
0
371
334
366
0
0
371
334
367
0
0
371
334
366
0
0
370
334
367
0
0
370
334
367
0
0
369
333
368
0
0
369
334
368
0
0
369
334
368
0
0
369
334
369
0
0
368
334
369
0
0
368
334
369
0
0
368
334
385
0
0
368
334
370
0
0
367
334
370
0
0
367
334
371
0
0
381
335
372
0
0
367
334
371
0
0
366
334
371
0
0
366
334
372
0
0
365
334
372
0
0
365
334
372
0
0
365
334
373
0
0
364
334
373
0
0
364
334
373
0
0
364
334
374
0
0
363
334
374
0
0
363
334
375
0
0
363
334
375
0
0
362
334
376
0
0
362
334
376
0
0
362
334
376
0
0
361
334
377
0
0
361
334
377
0
0
361
335
378
0
0
361
334
378
0
0
360
334
378
0
0
360
334
379
0
0
359
334
379
0
0
359
334
379
0
0
359
334
380
0
0
358
335
380
0
0
358
335
381
0
0
358
335
381
0
0
358
335
382
0
0
358
336
382
0
0
357
336
382
0
0
357
336
383
0
0
357
336
383
0
0
356
336
383
0
0
356
336
383
0
0
355
336
384
0
0
355
336
384
0
0
354
336
384
0
0
354
336
385
0
0
354
337
386
0
0
354
337
386
0
0
353
337
387
0
0
353
337
387
0
0
353
337
388
0
0
352
337
388
0
0
352
338
388
0
0
352
338
389
0
0
352
338
390
0
0
351
338
390
0
0
351
338
391
0
0
351
338
391
0
0
350
338
392
0
0
350
339
392
0
0
350
339
393
0
0
350
339
393
0
0
349
339
393
0
0
349
339
394
0
0
348
339
394
0
0
348
339
394
0
0
348
339
395
0
0
348
339
396
0
0
348
340
396
0
0
347
340
396
0
0
347
340
397
0
0
347
340
398
0
0
347
341
398
0
0
346
341
399
0
0
347
341
400
0
0
346
341
400
0
0
346
341
400
0
0
346
341
400
0
0
346
341
401
0
0
345
342
401
0
0
345
342
402
0
0
345
342
402
0
0
345
342
403
0
0
345
342
403
0
0
344
342
404
0
0
344
342
404
0
0
344
342
404
0
0
344
342
405
0
0
343
342
405
0
0
343
343
406
0
0
343
342
406
0
0
343
343
407
0
0
342
343
407
0
0
342
343
408
0
0
343
343
408
0
0
342
343
409
0
0
341
343
409
0
0
341
344
410
0
0
341
344
410
0
0
341
344
411
0
0
340
344
411
0
0
340
344
412
0
0
340
344
412
0
0
340
344
413
0
0
340
344
413
0
0
339
345
414
0
0
340
345
414
0
0
340
345
415
0
0
339
345
415
0
0
339
345
415
0
0
339
346
416
0
397
339
346
416
0
397
338
346
417
0
397
338
346
417
0
396
338
346
418
0
396
338
346
418
0
395
338
346
419
0
394
338
346
0
0
394
337
346
0
0
393
338
347
0
0
393
337
347
0
0
393
338
347
0
0
392
338
347
0
0
392
338
347
0
0
392
338
348
0
0
392
337
348
0
0
391
338
349
0
0
391
337
349
0
0
391
337
349
0
0
390
337
349
0
0
390
337
350
0
0
390
337
349
0
0
389
337
350
0
0
389
337
350
0
0
389
337
351
0
0
388
337
351
0
0
388
337
351
0
0
388
337
351
0
0
387
337
352
0
0
387
337
352
0
0
386
337
352
0
0
386
336
352
0
0
385
337
352
0
0
385
337
353
0
0
385
336
353
0
0
385
336
353
0
0
384
336
353
0
0
384
336
353
0
0
383
336
354
0
0
383
336
354
0
0
383
336
354
0
0
383
336
355
0
0
382
336
355
0
0
382
336
355
0
0
382
336
356
0
0
382
336
356
0
0
382
336
356
0
0
381
336
357
0
0
381
336
357
0
0
381
336
357
0
0
381
336
358
0
0
381
335
358
0
0
380
336
358
0
0
380
336
359
0
0
380
336
359
0
0
379
336
359
0
0
379
335
360
0
0
379
336
360
0
0
379
336
360
0
0
379
336
360
0
0
378
335
360
0
0
377
335
360
0
0
377
335
360
0
0
376
334
360
0
0
375
334
360
0
0
375
334
361
0
0
375
334
361
0
0
374
333
361
0
0
374
333
361
0
0
373
332
361
0
0
373
333
361
0
0
373
333
362
0
0
372
333
362
0
0
372
333
362
0
0
372
333
363
0
0
372
333
363
0
0
372
333
363
0
0
371
333
363
0
0
371
333
364
0
0
371
333
364
0
0
371
333
364
0
0
370
333
365
0
0
370
333
365
0
0
370
333
366
0
0
369
333
366
0
0
369
333
366
0
0
369
333
366
0
0
369
333
367
0
0
368
333
367
0
0
368
332
367
0
0
368
333
368
0
0
368
333
368
0
0
367
333
368
0
0
367
333
368
0
0
367
333
369
0
0
367
333
369
0
0
366
333
369
0
0
366
333
369
0
0
366
333
370
0
0
366
333
370
0
0
365
333
371
0
0
365
333
370
0
0
365
333
371
0
0
364
333
371
0
0
364
333
371
0
0
364
332
372
0
0
364
333
372
0
0
364
333
372
0
0
363
333
372
0
0
363
333
373
0
0
362
333
373
0
0
362
333
374
0
0
363
334
374
0
0
362
333
375
0
0
362
333
375
0
0
361
333
376
0
0
361
333
376
0
0
361
333
376
0
0
361
334
377
0
0
360
333
377
0
0
360
334
378
0
0
360
334
378
0
0
360
334
378
0
0
359
334
378
0
0
359
334
379
0
0
359
334
379
0
0
358
334
379
0
0
358
334
380
0
0
358
334
380
0
0
358
334
380
0
0
357
334
381
0
0
357
335
381
0
0
357
335
382
0
0
356
335
382
0
0
356
335
382
0
0
356
335
382
0
0
355
335
382
0
0
355
335
382
0
0
355
335
383
0
0
355
335
384
0
0
355
336
384
0
0
354
335
384
0
0
353
336
384
0
0
353
336
385
0
0
353
336
385
0
0
352
336
385
0
0
352
336
386
0
0
352
336
386
0
0
352
336
387
0
0
352
336
387
0
0
351
337
387
0
0
351
337
388
0
0
351
337
388
0
0
351
337
389
0
0
350
337
389
0
0
350
337
390
0
0
350
337
390
0
0
349
337
390
0
0
349
337
391
0
0
349
337
391
0
0
348
338
392
0
0
348
337
392
0
0
348
338
392
0
0
348
338
392
0
0
348
338
393
0
0
347
338
393
0
0
346
339
394
0
0
347
339
394
0
0
346
339
395
0
0
346
339
395
0
0
347
338
395
0
0
346
339
396
0
0
345
339
396
0
0
345
339
396
0
0
345
339
397
0
0
345
340
397
0
0
345
340
397
0
0
346
340
398
0
0
345
340
399
0
0
345
340
399
0
0
345
340
399
0
0
345
340
400
0
0
345
340
400
0
0
344
340
401
0
0
344
340
401
0
0
344
341
401
0
0
345
341
402
0
0
344
341
402
0
0
344
341
403
0
0
344
341
403
0
0
343
342
403
0
0
343
342
403
0
0
343
342
404
0
0
343
342
404
0
0
343
342
405
0
0
343
342
405
0
0
342
342
406
0
0
342
342
406
0
0
342
342
406
0
0
342
342
407
0
0
341
343
407
0
0
341
343
408
0
0
341
343
408
0
0
341
343
408
0
0
341
343
409
0
0
340
344
409
0
0
340
344
410
0
0
340
344
411
0
0
340
344
411
0
0
340
344
411
0
0
340
344
412
0
0
340
344
412
0
0
340
344
413
0
0
340
345
413
0
0
340
344
414
0
0
340
344
414
0
0
339
345
414
0
0
339
345
415
0
0
339
345
415
0
0
339
345
415
0
0
339
346
416
0
398
339
346
416
0
397
339
346
417
0
397
339
346
417
0
396
339
346
418
0
396
338
347
418
0
396
338
346
419
0
395
338
346
419
0
395
338
347
0
0
394
338
346
0
0
394
338
347
0
0
394
338
347
0
0
394
338
347
0
0
393
338
347
0
0
393
338
347
0
0
392
338
348
0
0
392
338
349
0
0
392
338
348
0
0
392
338
348
0
0
391
338
349
0
0
391
338
349
0
0
391
337
349
0
0
391
337
350
0
0
391
338
350
0
0
390
337
350
0
0
390
337
350
0
0
390
338
350
0
0
390
338
350
0
0
389
337
351
0
0
389
337
351
0
0
389
337
351
0
0
388
337
351
0
0
388
337
351
0
0
387
337
351
0
0
387
337
352
0
0
387
337
352
0
0
387
337
352
0
0
386
337
352
0
0
386
337
353
0
0
386
337
353
0
0
385
337
353
0
0
386
337
354
0
0
385
337
354
0
0
385
337
354
0
0
385
337
354
0
0
385
337
354
0
0
384
337
354
0
0
384
337
355
0
0
383
336
356
0
0
383
336
355
0
0
383
337
355
0
0
383
337
356
0
0
383
337
356
0
0
383
337
356
0
0
383
337
357
0
0
382
337
357
0
0
383
337
358
0
0
382
337
358
0
0
382
337
358
0
0
382
337
358
0
0
382
337
358
0
0
381
337
359
0
0
381
336
359
0
0
380
336
359
0
0
380
336
359
0
0
380
337
359
0
0
380
336
359
0
0
380
336
360
0
0
379
336
360
0
0
379
336
360
0
0
379
336
360
0
0
378
336
361
0
0
378
336
361
0
0
378
336
361
0
0
378
335
361
0
0
378
336
361
0
0
378
336
362
0
0
377
336
362
0
0
377
336
362
0
0
377
336
363
0
0
376
336
363
0
0
376
335
363
0
0
376
335
363
0
0
375
335
363
0
0
375
335
363
0
0
375
335
364
0
0
375
335
364
0
0
375
335
364
0
0
374
335
365
0
0
374
335
365
0
0
374
335
365
0
0
374
